time/s	Ewe/V	I/mA	error	
1.806020572745899E+004	-4.6945079E-003	-1.9473043E-001	0
1.806020592745900E+004	-1.1429671E-002	-1.9597168E-001	0
1.806020612745895E+004	-1.5256875E-002	-1.9597867E-001	0
1.806020632745896E+004	-1.6688634E-002	-1.9597611E-001	0
1.806020672745898E+004	-1.8330384E-002	-1.9597867E-001	0
1.806020712745897E+004	-1.9704875E-002	-1.9597931E-001	0
1.806020752745896E+004	-2.0716650E-002	-1.9598185E-001	0
1.806020792745898E+004	-2.1747516E-002	-1.9598058E-001	0
1.806020852745895E+004	-2.2854745E-002	-1.9598313E-001	0
1.806020912745895E+004	-2.3961972E-002	-1.9597486E-001	0
1.806020972745895E+004	-2.5011929E-002	-1.9598439E-001	0
1.806021032745892E+004	-2.6042795E-002	-1.9597359E-001	0
1.806021112745891E+004	-2.7264563E-002	-1.9597039E-001	0
1.806021192745888E+004	-2.8486332E-002	-1.9597994E-001	0
1.806021272745890E+004	-2.9708100E-002	-1.9598375E-001	0
1.806021352745889E+004	-3.0758057E-002	-1.9598185E-001	0
1.806021452745888E+004	-3.1903464E-002	-1.9597740E-001	0
1.806021532745889E+004	-3.3067960E-002	-1.9598375E-001	0
1.806021632745885E+004	-3.4347001E-002	-1.9597359E-001	0
1.806021732745884E+004	-3.5549678E-002	-1.9598122E-001	0
1.806021832745883E+004	-3.6599636E-002	-1.9598185E-001	0
1.806021932745882E+004	-3.7706863E-002	-1.9598313E-001	0
1.806022032745881E+004	-3.8871359E-002	-1.9597994E-001	0
1.806022112745879E+004	-3.9902225E-002	-1.9597994E-001	0
1.806022212745878E+004	-4.0914003E-002	-1.9598503E-001	0
1.806022332745878E+004	-4.2078502E-002	-1.9597802E-001	0
1.806022432745877E+004	-4.3109369E-002	-1.9598313E-001	0
1.806022552745877E+004	-4.4312045E-002	-1.9598185E-001	0
1.806022672745872E+004	-4.5552906E-002	-1.9598375E-001	0
1.806022792745871E+004	-4.6717402E-002	-1.9597740E-001	0
1.806022912745870E+004	-4.7843721E-002	-1.9598313E-001	0
1.806023032745869E+004	-4.8855495E-002	-1.9597550E-001	0
1.806023152745864E+004	-5.0077263E-002	-1.9598058E-001	0
1.806023272745867E+004	-5.1108129E-002	-1.9597676E-001	0
1.806023392745864E+004	-5.2234448E-002	-1.9597931E-001	0
1.806023512745864E+004	-5.3341676E-002	-1.9598503E-001	0
1.806023632745861E+004	-5.4353453E-002	-1.9597931E-001	0
1.806023752745858E+004	-5.5441588E-002	-1.9597740E-001	0
1.806023892745859E+004	-5.6548815E-002	-1.9598630E-001	0
1.806024012745857E+004	-5.7732403E-002	-1.9598566E-001	0
1.806024152745854E+004	-5.8763273E-002	-1.9598185E-001	0
1.806024292745854E+004	-5.9965950E-002	-1.9597802E-001	0
1.806024432745851E+004	-6.0977727E-002	-1.9597994E-001	0
1.806024552745849E+004	-6.2065862E-002	-1.9597229E-001	0
1.806024692745850E+004	-6.3230358E-002	-1.9597802E-001	0
1.806024832745848E+004	-6.4242139E-002	-1.9598185E-001	0
1.806024972745846E+004	-6.5292090E-002	-1.9597295E-001	0
1.806025112745841E+004	-6.6418409E-002	-1.9597867E-001	0
1.806025252745842E+004	-6.7468368E-002	-1.9598439E-001	0
1.806025392745840E+004	-6.8537414E-002	-1.9597994E-001	0
1.806025532745838E+004	-6.9644645E-002	-1.9598058E-001	0
1.806025692745834E+004	-7.0732780E-002	-1.9598058E-001	0
1.806025832745834E+004	-7.1820915E-002	-1.9598313E-001	0
1.806025992745832E+004	-7.2947234E-002	-1.9598058E-001	0
1.806026152745831E+004	-7.4169002E-002	-1.9597994E-001	0
1.806026332745829E+004	-7.5409859E-002	-1.9598185E-001	0
1.806026492745825E+004	-7.6574355E-002	-1.9597931E-001	0
1.806026652745827E+004	-7.7586137E-002	-1.9597740E-001	0
1.806026812745823E+004	-7.8731544E-002	-1.9597676E-001	0
1.806026952745821E+004	-7.9762407E-002	-1.9597802E-001	0
1.806027132745819E+004	-8.0888726E-002	-1.9597931E-001	0
1.806027292745817E+004	-8.1957772E-002	-1.9598058E-001	0
1.806027452745812E+004	-8.3065003E-002	-1.9597486E-001	0
1.806027632745815E+004	-8.4153138E-002	-1.9598503E-001	0
1.806027772745810E+004	-8.5164912E-002	-1.9598058E-001	0
1.806027952745809E+004	-8.6195782E-002	-1.9598313E-001	0
1.806028112745807E+004	-8.7303005E-002	-1.9597931E-001	0
1.806028272745805E+004	-8.8352963E-002	-1.9597867E-001	0
1.806028432745801E+004	-8.9517467E-002	-1.9597802E-001	0
1.806028652745800E+004	-9.0739228E-002	-1.9598185E-001	0
1.806028832745797E+004	-9.1846459E-002	-1.9598375E-001	0
1.806029012745793E+004	-9.2915505E-002	-1.9598185E-001	0
1.806029192745796E+004	-9.4022736E-002	-1.9597867E-001	0
1.806029372745793E+004	-9.5091783E-002	-1.9597676E-001	0
1.806029552745790E+004	-9.6103556E-002	-1.9597931E-001	0
1.806029712745789E+004	-9.7134426E-002	-1.9598058E-001	0
1.806029912745787E+004	-9.8222561E-002	-1.9597867E-001	0
1.806030092745784E+004	-9.9234335E-002	-1.9597740E-001	0
1.806030252745781E+004	-1.0032248E-001	-1.9598439E-001	0
1.806030452745779E+004	-1.0142970E-001	-1.9598439E-001	0
1.806030652745777E+004	-1.0249875E-001	-1.9597740E-001	0
1.806030852745775E+004	-1.0356779E-001	-1.9597867E-001	0
1.806031052745771E+004	-1.0467502E-001	-1.9598630E-001	0
1.806031232745769E+004	-1.0576316E-001	-1.9598058E-001	0
1.806031452745767E+004	-1.0687039E-001	-1.9598439E-001	0
1.806031652745765E+004	-1.0793944E-001	-1.9597867E-001	0
1.806031832745761E+004	-1.0898940E-001	-1.9597676E-001	0
1.806032032745759E+004	-1.1000117E-001	-1.9598185E-001	0
1.806032252745758E+004	-1.1118475E-001	-1.9598439E-001	0
1.806032452745756E+004	-1.1219653E-001	-1.9597611E-001	0
1.806032692745753E+004	-1.1332285E-001	-1.9598058E-001	0
1.806032892745751E+004	-1.1446826E-001	-1.9597740E-001	0
1.806033112745744E+004	-1.1549912E-001	-1.9597740E-001	0
1.806033312745742E+004	-1.1652999E-001	-1.9598503E-001	0
1.806033532745740E+004	-1.1763722E-001	-1.9598566E-001	0
1.806033772745739E+004	-1.1870626E-001	-1.9598249E-001	0
1.806033972745737E+004	-1.1977531E-001	-1.9598313E-001	0
1.806034212745735E+004	-1.2088254E-001	-1.9597867E-001	0
1.806034432745731E+004	-1.2193250E-001	-1.9598122E-001	0
1.806034672745725E+004	-1.2294427E-001	-1.9597676E-001	0
1.806034872745723E+004	-1.2403242E-001	-1.9597740E-001	0
1.806035132745722E+004	-1.2521599E-001	-1.9597931E-001	0
1.806035392745718E+004	-1.2622777E-001	-1.9597104E-001	0
1.806035592745719E+004	-1.2723956E-001	-1.9597931E-001	0
1.806035832745716E+004	-1.2827042E-001	-1.9598122E-001	0
1.806036072745710E+004	-1.2930128E-001	-1.9598694E-001	0
1.806036312745708E+004	-1.3040851E-001	-1.9597420E-001	0
1.806036572745704E+004	-1.3145846E-001	-1.9598122E-001	0
1.806036812745704E+004	-1.3248934E-001	-1.9597931E-001	0
1.806037092745698E+004	-1.3357747E-001	-1.9598313E-001	0
1.806037312745696E+004	-1.3462743E-001	-1.9598058E-001	0
1.806037592745695E+004	-1.3571556E-001	-1.9597611E-001	0
1.806037832745689E+004	-1.3676552E-001	-1.9597994E-001	0
1.806038072745687E+004	-1.3779639E-001	-1.9597802E-001	0
1.806038372745685E+004	-1.3884635E-001	-1.9598375E-001	0
1.806038632745680E+004	-1.3989630E-001	-1.9597802E-001	0
1.806038892745678E+004	-1.4096536E-001	-1.9597486E-001	0
1.806039192745672E+004	-1.4201531E-001	-1.9598375E-001	0
1.806039452745669E+004	-1.4302708E-001	-1.9597994E-001	0
1.806039752745663E+004	-1.4415340E-001	-1.9598122E-001	0
1.806040032745663E+004	-1.4522246E-001	-1.9597994E-001	0
1.806040332745656E+004	-1.4631058E-001	-1.9597867E-001	0
1.806040612745656E+004	-1.4736055E-001	-1.9597420E-001	0
1.806040932745649E+004	-1.4837232E-001	-1.9597676E-001	0
1.806041232745648E+004	-1.4949864E-001	-1.9597867E-001	0
1.806041532745643E+004	-1.5058677E-001	-1.9598757E-001	0
1.806041872745642E+004	-1.5163673E-001	-1.9598249E-001	0
1.806042152745638E+004	-1.5270577E-001	-1.9598886E-001	0
1.806042472745635E+004	-1.5375574E-001	-1.9597867E-001	0
1.806042792745629E+004	-1.5482478E-001	-1.9598375E-001	0
1.806043092745624E+004	-1.5585566E-001	-1.9598630E-001	0
1.806043492745620E+004	-1.5692469E-001	-1.9597931E-001	0
1.806043792745617E+004	-1.5803193E-001	-1.9598185E-001	0
1.806044152745613E+004	-1.5913916E-001	-1.9597994E-001	0
1.806044532745608E+004	-1.6020820E-001	-1.9597676E-001	0
1.806044912745604E+004	-1.6123906E-001	-1.9598122E-001	0
1.806045232745598E+004	-1.6232720E-001	-1.9598185E-001	0
1.806045632745593E+004	-1.6339625E-001	-1.9597867E-001	0
1.806046012745588E+004	-1.6444620E-001	-1.9597676E-001	0
1.806046352745587E+004	-1.6557252E-001	-1.9598566E-001	0
1.806046772745583E+004	-1.6658430E-001	-1.9597994E-001	0
1.806047152745578E+004	-1.6763426E-001	-1.9598313E-001	0
1.806047552745574E+004	-1.6866513E-001	-1.9597676E-001	0
1.806047932745569E+004	-1.6977236E-001	-1.9597676E-001	0
1.806048352745560E+004	-1.7078413E-001	-1.9598185E-001	0
1.806048752745555E+004	-1.7183408E-001	-1.9598058E-001	0
1.806049232745552E+004	-1.7284586E-001	-1.9597931E-001	0
1.806049632745546E+004	-1.7389582E-001	-1.9597611E-001	0
1.806050092745543E+004	-1.7490759E-001	-1.9597740E-001	0
1.806050512745534E+004	-1.7591937E-001	-1.9598503E-001	0
1.806050952745530E+004	-1.7698842E-001	-1.9597802E-001	0
1.806051432745525E+004	-1.7807655E-001	-1.9598503E-001	0
1.806051972745518E+004	-1.7927924E-001	-1.9597867E-001	0
1.806052532745512E+004	-1.8050100E-001	-1.9597611E-001	0
1.806053072745504E+004	-1.8153188E-001	-1.9598122E-001	0
1.806053632745496E+004	-1.8263909E-001	-1.9597486E-001	0
1.806054192745493E+004	-1.8372723E-001	-1.9597867E-001	0
1.806054752745485E+004	-1.8473901E-001	-1.9598058E-001	0
1.806055392745475E+004	-1.8588442E-001	-1.9598249E-001	0
1.806055992745468E+004	-1.8691528E-001	-1.9598122E-001	0
1.806056572745461E+004	-1.8792707E-001	-1.9598503E-001	0
1.806057272745456E+004	-1.8897702E-001	-1.9597802E-001	0
1.806057912745443E+004	-1.9000788E-001	-1.9597994E-001	0
1.806058692745434E+004	-1.9109602E-001	-1.9597867E-001	0
1.806059472745424E+004	-1.9216508E-001	-1.9598566E-001	0
1.806060392745415E+004	-1.9317685E-001	-1.9598375E-001	0
1.806061292745406E+004	-1.9418862E-001	-1.9598122E-001	0
1.806062492745392E+004	-1.9525766E-001	-1.9597611E-001	0
1.806063872745374E+004	-1.9628854E-001	-1.9598249E-001	0
1.806070692745292E+004	-1.9523858E-001	-1.9597867E-001	0
1.806071772745281E+004	-1.9420771E-001	-1.9598185E-001	0
1.806072612745268E+004	-1.9310048E-001	-1.9598058E-001	0
1.806073492745258E+004	-1.9197416E-001	-1.9598058E-001	0
1.806074212745250E+004	-1.9094330E-001	-1.9598439E-001	0
1.806074972745241E+004	-1.8979789E-001	-1.9598058E-001	0
1.806075592745232E+004	-1.8878612E-001	-1.9597931E-001	0
1.806076132745226E+004	-1.8773615E-001	-1.9598757E-001	0
1.806076772745218E+004	-1.8668620E-001	-1.9598313E-001	0
1.806077352745211E+004	-1.8567443E-001	-1.9598058E-001	0
1.806077872745204E+004	-1.8456720E-001	-1.9598122E-001	0
1.806078492745197E+004	-1.8342179E-001	-1.9598185E-001	0
1.806078992745193E+004	-1.8237184E-001	-1.9597802E-001	0
1.806079552745185E+004	-1.8136005E-001	-1.9597802E-001	0
1.806080032745178E+004	-1.8025284E-001	-1.9598249E-001	0
1.806080592745170E+004	-1.7916469E-001	-1.9597994E-001	0
1.806081132745167E+004	-1.7815292E-001	-1.9598313E-001	0
1.806081652745159E+004	-1.7712206E-001	-1.9598185E-001	0
1.806082092745154E+004	-1.7609118E-001	-1.9598757E-001	0
1.806082672745147E+004	-1.7504123E-001	-1.9597676E-001	0
1.806083172745141E+004	-1.7397217E-001	-1.9598375E-001	0
1.806083712745132E+004	-1.7296040E-001	-1.9598375E-001	0
1.806084212745129E+004	-1.7192954E-001	-1.9597931E-001	0
1.806084772745121E+004	-1.7089868E-001	-1.9597867E-001	0
1.806085292745114E+004	-1.6984871E-001	-1.9598185E-001	0
1.806085912745108E+004	-1.6883694E-001	-1.9598249E-001	0
1.806086432745098E+004	-1.6780607E-001	-1.9597802E-001	0
1.806087032745092E+004	-1.6675611E-001	-1.9598122E-001	0
1.806087632745085E+004	-1.6570616E-001	-1.9598185E-001	0
1.806088272745079E+004	-1.6463710E-001	-1.9598185E-001	0
1.806088812745071E+004	-1.6360624E-001	-1.9597676E-001	0
1.806089492745063E+004	-1.6257538E-001	-1.9597994E-001	0
1.806090092745057E+004	-1.6156359E-001	-1.9598313E-001	0
1.806090752745047E+004	-1.6053273E-001	-1.9598439E-001	0
1.806091432745042E+004	-1.5946369E-001	-1.9597802E-001	0
1.806092252745031E+004	-1.5841372E-001	-1.9598375E-001	0
1.806092912745022E+004	-1.5728740E-001	-1.9597740E-001	0
1.806093712745013E+004	-1.5627563E-001	-1.9599077E-001	0
1.806094432745007E+004	-1.5520659E-001	-1.9598313E-001	0
1.806095272744994E+004	-1.5417571E-001	-1.9598313E-001	0
1.806096112744983E+004	-1.5312576E-001	-1.9598375E-001	0
1.806097012744972E+004	-1.5209490E-001	-1.9598439E-001	0
1.806097852744962E+004	-1.5096858E-001	-1.9597611E-001	0
1.806098952744948E+004	-1.4995679E-001	-1.9598185E-001	0
1.806099952744937E+004	-1.4884958E-001	-1.9597931E-001	0
1.806100972744924E+004	-1.4783780E-001	-1.9598122E-001	0
1.806102092744911E+004	-1.4682601E-001	-1.9598249E-001	0
1.806103272744897E+004	-1.4569969E-001	-1.9597867E-001	0
1.806104612744879E+004	-1.4463066E-001	-1.9598375E-001	0
1.806105852744867E+004	-1.4359979E-001	-1.9598249E-001	0
1.806107272744851E+004	-1.4258800E-001	-1.9598249E-001	0
1.806108772744831E+004	-1.4153805E-001	-1.9598058E-001	0
1.806110352744811E+004	-1.4052628E-001	-1.9597486E-001	0
1.806111972744792E+004	-1.3945723E-001	-1.9598439E-001	0
1.806113952744770E+004	-1.3840728E-001	-1.9598122E-001	0
1.806115972744743E+004	-1.3730004E-001	-1.9597994E-001	0
1.806118352744715E+004	-1.3623101E-001	-1.9598058E-001	0
1.806121012744680E+004	-1.3521922E-001	-1.9598058E-001	0
1.806123692744650E+004	-1.3418835E-001	-1.9597802E-001	0
1.806126852744614E+004	-1.3315749E-001	-1.9598694E-001	0
1.806130032744573E+004	-1.3214572E-001	-1.9598122E-001	0
1.806134592744517E+004	-1.3107666E-001	-1.9598249E-001	0
1.806139152744465E+004	-1.3006489E-001	-1.9598694E-001	0
1.806144312744400E+004	-1.2905312E-001	-1.9598122E-001	0
1.806152352744303E+004	-1.2800315E-001	-1.9597740E-001	0
1.806161832744186E+004	-1.2695320E-001	-1.9597740E-001	0
1.806174792744032E+004	-1.2594143E-001	-1.9598566E-001	0
1.806193812743801E+004	-1.2487238E-001	-1.9598249E-001	0
1.806226632743404E+004	-1.2384151E-001	-1.9598122E-001	0
1.806314012742345E+004	-1.2282974E-001	-1.9598313E-001	0
1.806585712739057E+004	-1.2181795E-001	-1.9598185E-001	0
1.807585712726950E+004	-1.2132161E-001	-1.9598313E-001	0
1.808585712714843E+004	-1.2135980E-001	-1.9598566E-001	0
1.809585712702735E+004	-1.2135980E-001	-1.9598439E-001	0
1.810585712690628E+004	-1.2111162E-001	-1.9598439E-001	0
1.811585712678521E+004	-1.2097799E-001	-1.9598439E-001	0
1.812585712666414E+004	-1.2065346E-001	-1.9598757E-001	0
1.813585712654307E+004	-1.2034801E-001	-1.9597740E-001	0
1.814585712642199E+004	-1.1994713E-001	-1.9597867E-001	0
1.815585712630092E+004	-1.1939351E-001	-1.9598503E-001	0
1.816585712617985E+004	-1.1895443E-001	-1.9598630E-001	0
1.817585712605878E+004	-1.1845809E-001	-1.9598122E-001	0
1.818585712593771E+004	-1.1782812E-001	-1.9598185E-001	0
1.819585712581663E+004	-1.1742723E-001	-1.9598313E-001	0
1.820585712569556E+004	-1.1687361E-001	-1.9598503E-001	0
1.821585712557449E+004	-1.1624364E-001	-1.9598566E-001	0
1.822585712545342E+004	-1.1578548E-001	-1.9598313E-001	0
1.823585712533235E+004	-1.1528914E-001	-1.9598630E-001	0
1.824585712521127E+004	-1.1473552E-001	-1.9598566E-001	0
1.825585712509020E+004	-1.1414373E-001	-1.9598694E-001	0
1.826585712496913E+004	-1.1370465E-001	-1.9598630E-001	0
1.827585712484806E+004	-1.1299832E-001	-1.9598122E-001	0
1.828585712472699E+004	-1.1259743E-001	-1.9598821E-001	0
1.829585712460591E+004	-1.1196745E-001	-1.9598886E-001	0
1.830585712448484E+004	-1.1145202E-001	-1.9598185E-001	0
1.831585712436377E+004	-1.1093658E-001	-1.9598058E-001	0
1.832585712424270E+004	-1.1040206E-001	-1.9598439E-001	0
1.833585712412163E+004	-1.1002026E-001	-1.9598503E-001	0
1.834585712400055E+004	-1.0956210E-001	-1.9598503E-001	0
1.835585712387948E+004	-1.0908484E-001	-1.9598249E-001	0
1.836585712375841E+004	-1.0856941E-001	-1.9598375E-001	0
1.837585712363734E+004	-1.0826397E-001	-1.9598249E-001	0
1.838585712351627E+004	-1.0759582E-001	-1.9598249E-001	0
1.839585712339520E+004	-1.0753854E-001	-1.9597931E-001	0
1.840585712327412E+004	-1.0704220E-001	-1.9598947E-001	0
1.841585712315305E+004	-1.0667948E-001	-1.9598503E-001	0
1.842585712303198E+004	-1.0616405E-001	-1.9598694E-001	0
1.843585712291091E+004	-1.0585861E-001	-1.9598313E-001	0
1.844585712278984E+004	-1.0553408E-001	-1.9598821E-001	0
1.845585712266876E+004	-1.0503773E-001	-1.9598439E-001	0
1.846585712254769E+004	-1.0494228E-001	-1.9598058E-001	0
1.847585712242662E+004	-1.0433140E-001	-1.9599012E-001	0
1.848585712230555E+004	-1.0410232E-001	-1.9598122E-001	0
1.849585712218448E+004	-1.0366324E-001	-1.9598375E-001	0
1.850585712206340E+004	-1.0328145E-001	-1.9598821E-001	0
1.851585712194233E+004	-1.0305236E-001	-1.9598694E-001	0
1.852585712182126E+004	-1.0276601E-001	-1.9598566E-001	0
1.853585712170019E+004	-1.0234603E-001	-1.9598566E-001	0
1.854585712157912E+004	-1.0213604E-001	-1.9598313E-001	0
1.855585712145804E+004	-1.0177332E-001	-1.9597867E-001	0
1.856585712133697E+004	-1.0148697E-001	-1.9598566E-001	0
1.857585712121590E+004	-1.0127698E-001	-1.9598630E-001	0
1.858585712109483E+004	-1.0110517E-001	-1.9598439E-001	0
1.859585712097376E+004	-1.0066610E-001	-1.9598694E-001	0
1.860585712085268E+004	-1.0053246E-001	-1.9598757E-001	0
1.861585712073161E+004	-1.0024612E-001	-1.9598503E-001	0
1.862585712061054E+004	-1.0007431E-001	-1.9598630E-001	0
1.863585712048947E+004	-9.9768862E-002	-1.9598757E-001	0
1.864585712036840E+004	-9.9558868E-002	-1.9598947E-001	0
1.865585712024732E+004	-9.9348880E-002	-1.9598821E-001	0
1.866585712012625E+004	-9.9062525E-002	-1.9598503E-001	0
1.867585712000518E+004	-9.8833442E-002	-1.9598630E-001	0
1.868585711988411E+004	-9.8642543E-002	-1.9598630E-001	0
1.869585711976304E+004	-9.8375283E-002	-1.9598375E-001	0
1.870585711964197E+004	-9.8222561E-002	-1.9598185E-001	0
1.871585711952089E+004	-9.8050751E-002	-1.9598185E-001	0
1.872585711939982E+004	-9.7707130E-002	-1.9599012E-001	0
1.873585711927875E+004	-9.7554408E-002	-1.9598566E-001	0
1.874585711915768E+004	-9.7401686E-002	-1.9598630E-001	0
1.875585711903661E+004	-9.7306237E-002	-1.9599012E-001	0
1.876585711891553E+004	-9.7115330E-002	-1.9598566E-001	0
1.877585711879446E+004	-9.6867159E-002	-1.9598313E-001	0
1.878585711867339E+004	-9.6618988E-002	-1.9598058E-001	0
1.879585711855232E+004	-9.6466273E-002	-1.9598566E-001	0
1.880585711843125E+004	-9.6256278E-002	-1.9598313E-001	0
1.881585711831017E+004	-9.6199006E-002	-1.9598439E-001	0
1.882585711818910E+004	-9.5989019E-002	-1.9598630E-001	0
1.883585711806803E+004	-9.5702663E-002	-1.9598630E-001	0
1.884585711794696E+004	-9.5530853E-002	-1.9598313E-001	0
1.885585711782589E+004	-9.5282681E-002	-1.9598566E-001	0
1.886585711770481E+004	-9.5206320E-002	-1.9598249E-001	0
1.887585711758374E+004	-9.4900876E-002	-1.9598122E-001	0
1.888585711746267E+004	-9.5015422E-002	-1.9599077E-001	0
1.889585711734160E+004	-9.4843611E-002	-1.9598439E-001	0
1.890585711722053E+004	-9.4671801E-002	-1.9598821E-001	0
1.891585711709945E+004	-9.4480895E-002	-1.9598566E-001	0
1.892585711697838E+004	-9.4385445E-002	-1.9598058E-001	0
1.893585711685731E+004	-9.4080001E-002	-1.9598313E-001	0
1.894585711673624E+004	-9.4156362E-002	-1.9598375E-001	0
1.895585711661517E+004	-9.3793653E-002	-1.9598886E-001	0
1.896585711649410E+004	-9.3774565E-002	-1.9598313E-001	0
1.897585711637302E+004	-9.3526393E-002	-1.9597867E-001	0
1.898585711625195E+004	-9.3507297E-002	-1.9598630E-001	0
1.899585711613088E+004	-9.3240038E-002	-1.9598566E-001	0
1.900585711600981E+004	-9.3220949E-002	-1.9598630E-001	0
1.901585711588874E+004	-9.3220949E-002	-1.9598566E-001	0
1.902585711576766E+004	-9.3144588E-002	-1.9598185E-001	0
1.903585711564659E+004	-9.3087316E-002	-1.9598630E-001	0
1.904585711552552E+004	-9.2686422E-002	-1.9599393E-001	0
1.905585711540445E+004	-9.2705518E-002	-1.9598122E-001	0
1.906585711528338E+004	-9.2457339E-002	-1.9598503E-001	0
1.907585711516230E+004	-9.2457339E-002	-1.9598503E-001	0
1.908585711504123E+004	-9.2285529E-002	-1.9598375E-001	0
1.909585711492016E+004	-9.2266440E-002	-1.9598757E-001	0
1.910585711479909E+004	-9.1999181E-002	-1.9598694E-001	0
1.911585711467802E+004	-9.2018269E-002	-1.9598313E-001	0
1.912585711455694E+004	-9.1751009E-002	-1.9598566E-001	0
1.913585711443587E+004	-9.1693737E-002	-1.9598566E-001	0
1.914585711431480E+004	-9.1617376E-002	-1.9598313E-001	0
1.915585711419373E+004	-9.1579199E-002	-1.9598439E-001	0
1.916585711407266E+004	-9.1350116E-002	-1.9598249E-001	0
1.917585711395158E+004	-9.1197394E-002	-1.9598185E-001	0
1.918585711383051E+004	-9.1063760E-002	-1.9598122E-001	0
1.919585711370944E+004	-9.1025583E-002	-1.9598630E-001	0
1.920585711358837E+004	-9.0815589E-002	-1.9598694E-001	0
1.921585711346730E+004	-9.0758324E-002	-1.9598439E-001	0
1.922585711334622E+004	-9.0701051E-002	-1.9598439E-001	0
1.923585711322515E+004	-9.0491056E-002	-1.9599202E-001	0
1.924585711310408E+004	-9.0395607E-002	-1.9598122E-001	0
1.925585711298301E+004	-9.0452880E-002	-1.9598313E-001	0
1.926585711286194E+004	-9.0185620E-002	-1.9598439E-001	0
1.927585711274087E+004	-9.0071075E-002	-1.9598375E-001	0
1.928585711261979E+004	-8.9937449E-002	-1.9599520E-001	0
1.929585711249872E+004	-8.9822903E-002	-1.9598375E-001	0
1.930585711237765E+004	-8.9861088E-002	-1.9598886E-001	0
1.931585711225658E+004	-8.9708365E-002	-1.9598566E-001	0
1.932585711213551E+004	-8.9479282E-002	-1.9598630E-001	0
1.933585711201443E+004	-8.9479282E-002	-1.9598566E-001	0
1.934585711189336E+004	-8.9460194E-002	-1.9598630E-001	0
1.935585711177229E+004	-8.9250199E-002	-1.9598185E-001	0
1.936585711165122E+004	-8.9192934E-002	-1.9598886E-001	0
1.937585711153015E+004	-8.9154750E-002	-1.9598313E-001	0
1.938585711140907E+004	-8.9002028E-002	-1.9598630E-001	0
1.939585711128800E+004	-8.8906579E-002	-1.9598503E-001	0
1.940585711116693E+004	-8.9002028E-002	-1.9598058E-001	0
1.941585711104586E+004	-8.8792041E-002	-1.9598694E-001	0
1.942585711092479E+004	-8.8792041E-002	-1.9598886E-001	0
1.943585711080371E+004	-8.8562958E-002	-1.9598821E-001	0
1.944585711068264E+004	-8.8562958E-002	-1.9598886E-001	0
1.945585711056157E+004	-8.8429324E-002	-1.9598375E-001	0
1.946585711044050E+004	-8.8391148E-002	-1.9598757E-001	0
1.947585711031943E+004	-8.8219337E-002	-1.9598185E-001	0
1.948585711019835E+004	-8.8162065E-002	-1.9598439E-001	0
1.949585711007728E+004	-8.8276602E-002	-1.9598694E-001	0
1.950585710995621E+004	-8.8047527E-002	-1.9598566E-001	0
1.951585710983514E+004	-8.8085704E-002	-1.9598630E-001	0
1.952585710971407E+004	-8.7894805E-002	-1.9597994E-001	0
1.953585710959299E+004	-8.7837532E-002	-1.9598375E-001	0
1.954585710947192E+004	-8.7684810E-002	-1.9598439E-001	0
1.955585710935085E+004	-8.7684810E-002	-1.9598566E-001	0
1.956585710922978E+004	-8.7455727E-002	-1.9597867E-001	0
1.957585710910871E+004	-8.7474823E-002	-1.9598313E-001	0
1.958585710898764E+004	-8.7341189E-002	-1.9597994E-001	0
1.959585710886656E+004	-8.7226652E-002	-1.9598566E-001	0
1.960585710874549E+004	-8.7226652E-002	-1.9598313E-001	0
1.961585710862442E+004	-8.7131195E-002	-1.9598439E-001	0
1.962585710850335E+004	-8.6978480E-002	-1.9598694E-001	0
1.963585710838228E+004	-8.7131195E-002	-1.9598503E-001	0
1.964585710826120E+004	-8.7035745E-002	-1.9598249E-001	0
1.965585710814013E+004	-8.6997569E-002	-1.9598058E-001	0
1.966585710801906E+004	-8.6825758E-002	-1.9598757E-001	0
1.967585710789799E+004	-8.6787574E-002	-1.9597994E-001	0
1.968585710777692E+004	-8.6653948E-002	-1.9598821E-001	0
1.969585710765584E+004	-8.6558491E-002	-1.9598058E-001	0
1.970585710753477E+004	-8.6443953E-002	-1.9597931E-001	0
1.971585710741370E+004	-8.6386681E-002	-1.9598185E-001	0
1.972585710729263E+004	-8.6329415E-002	-1.9598439E-001	0
1.973585710717156E+004	-8.6272143E-002	-1.9598757E-001	0
1.974585710705048E+004	-8.6138509E-002	-1.9598185E-001	0
1.975585710692941E+004	-8.6081244E-002	-1.9598694E-001	0
1.976585710680834E+004	-8.6100332E-002	-1.9598375E-001	0
1.977585710668727E+004	-8.5871249E-002	-1.9598375E-001	0
1.978585710656620E+004	-8.6043060E-002	-1.9598694E-001	0
1.979585710644512E+004	-8.5813977E-002	-1.9598439E-001	0
1.980585710632405E+004	-8.5737616E-002	-1.9598503E-001	0
1.981585710620298E+004	-8.5565805E-002	-1.9598058E-001	0
1.982585710608191E+004	-8.5508540E-002	-1.9598630E-001	0
1.983585710596084E+004	-8.5489444E-002	-1.9599138E-001	0
1.984585710583976E+004	-8.5393995E-002	-1.9598630E-001	0
1.985585710571869E+004	-8.5432179E-002	-1.9598122E-001	0
1.986020570566604E+004	-8.5470356E-002	-1.9598249E-001	0