time/s	Ewe/V	I/mA	error	
1.860205753007249E+003	2.2508821E-003	-1.9465123E-001	0
1.860205953007244E+003	-2.5590539E-003	-1.9597907E-001	0
1.860206153007239E+003	-5.4312181E-003	-1.9598353E-001	0
1.860206353007234E+003	-6.5382556E-003	-1.9597526E-001	0
1.860206753007224E+003	-8.0270302E-003	-1.9598162E-001	0
1.860207153007213E+003	-9.5730657E-003	-1.9598544E-001	0
1.860207553007203E+003	-1.0966406E-002	-1.9598353E-001	0
1.860207953007193E+003	-1.2417007E-002	-1.9598162E-001	0
1.860208353007183E+003	-1.3676739E-002	-1.9598481E-001	0
1.860208753007173E+003	-1.4936472E-002	-1.9598290E-001	0
1.860209153007163E+003	-1.6005335E-002	-1.9597781E-001	0
1.860209553007153E+003	-1.7207807E-002	-1.9598608E-001	0
1.860209953007143E+003	-1.8257584E-002	-1.9598417E-001	0
1.860210353007133E+003	-1.9440969E-002	-1.9597845E-001	0
1.860210753007123E+003	-2.0586181E-002	-1.9597907E-001	0
1.860211353007107E+003	-2.2227651E-002	-1.9598481E-001	0
1.860211753007097E+003	-2.3239253E-002	-1.9598162E-001	0
1.860212353007082E+003	-2.4651682E-002	-1.9597971E-001	0
1.860212953007067E+003	-2.6140455E-002	-1.9598226E-001	0
1.860213353007057E+003	-2.7285667E-002	-1.9598417E-001	0
1.860213953007042E+003	-2.8583573E-002	-1.9598544E-001	0
1.860214353007032E+003	-2.9595178E-002	-1.9598481E-001	0
1.860214953007016E+003	-3.1045778E-002	-1.9598290E-001	0
1.860215553007001E+003	-3.2267336E-002	-1.9598798E-001	0
1.860215953006991E+003	-3.3298027E-002	-1.9598734E-001	0
1.860216553006976E+003	-3.4538671E-002	-1.9598290E-001	0
1.860217153006961E+003	-3.6065619E-002	-1.9598290E-001	0
1.860217753006946E+003	-3.7306264E-002	-1.9597845E-001	0
1.860218353006931E+003	-3.8489651E-002	-1.9598353E-001	0
1.860218953006915E+003	-3.9730296E-002	-1.9598226E-001	0
1.860219553006900E+003	-4.1047290E-002	-1.9598162E-001	0
1.860220153006885E+003	-4.2211588E-002	-1.9598544E-001	0
1.860220753006870E+003	-4.3471321E-002	-1.9598036E-001	0
1.860221353006855E+003	-4.4597443E-002	-1.9597971E-001	0
1.860221953006840E+003	-4.5838092E-002	-1.9598417E-001	0
1.860222553006824E+003	-4.7002390E-002	-1.9597845E-001	0
1.860223153006809E+003	-4.8147600E-002	-1.9598162E-001	0
1.860223753006794E+003	-4.9197376E-002	-1.9598544E-001	0
1.860224353006779E+003	-5.0380763E-002	-1.9598544E-001	0
1.860225153006759E+003	-5.1697753E-002	-1.9597845E-001	0
1.860225753006744E+003	-5.2900229E-002	-1.9598162E-001	0
1.860226353006728E+003	-5.4045439E-002	-1.9598608E-001	0
1.860227153006708E+003	-5.5419691E-002	-1.9598353E-001	0
1.860227753006693E+003	-5.6469470E-002	-1.9598734E-001	0
1.860228353006678E+003	-5.7595592E-002	-1.9598036E-001	0
1.860228953006663E+003	-5.8645371E-002	-1.9598417E-001	0
1.860229753006643E+003	-5.9962362E-002	-1.9598162E-001	0
1.860230353006627E+003	-6.1069403E-002	-1.9598672E-001	0
1.860231153006607E+003	-6.2386394E-002	-1.9598734E-001	0
1.860231753006592E+003	-6.3397996E-002	-1.9598353E-001	0
1.860232553006572E+003	-6.4638644E-002	-1.9598162E-001	0
1.860233353006552E+003	-6.5993808E-002	-1.9597845E-001	0
1.860234153006531E+003	-6.7387149E-002	-1.9598417E-001	0
1.860234953006511E+003	-6.8475097E-002	-1.9598481E-001	0
1.860235753006491E+003	-6.9639400E-002	-1.9598481E-001	0
1.860236553006471E+003	-7.0899129E-002	-1.9598544E-001	0
1.860237353006451E+003	-7.2197035E-002	-1.9598353E-001	0
1.860238153006430E+003	-7.3475853E-002	-1.9598226E-001	0
1.860238953006410E+003	-7.4544720E-002	-1.9598798E-001	0
1.860239753006390E+003	-7.5823538E-002	-1.9598353E-001	0
1.860240553006370E+003	-7.6968752E-002	-1.9598544E-001	0
1.860241353006350E+003	-7.8113958E-002	-1.9598608E-001	0
1.860242153006329E+003	-7.9125568E-002	-1.9597717E-001	0
1.860242953006309E+003	-8.0308951E-002	-1.9598162E-001	0
1.860243753006289E+003	-8.1473246E-002	-1.9597907E-001	0
1.860244553006269E+003	-8.2580283E-002	-1.9597971E-001	0
1.860245353006248E+003	-8.3649151E-002	-1.9598162E-001	0
1.860246153006228E+003	-8.4698930E-002	-1.9597971E-001	0
1.860246953006208E+003	-8.5882314E-002	-1.9598162E-001	0
1.860247953006183E+003	-8.7218389E-002	-1.9598098E-001	0
1.860248953006158E+003	-8.8401780E-002	-1.9598290E-001	0
1.860249753006137E+003	-8.9432471E-002	-1.9598036E-001	0
1.860250553006117E+003	-9.0501331E-002	-1.9598290E-001	0
1.860251553006092E+003	-9.1894671E-002	-1.9598608E-001	0
1.860252553006067E+003	-9.3097143E-002	-1.9597845E-001	0
1.860253553006041E+003	-9.4223268E-002	-1.9598417E-001	0
1.860254353006021E+003	-9.5273048E-002	-1.9598036E-001	0
1.860255153006001E+003	-9.6303739E-002	-1.9598353E-001	0
1.860256153005976E+003	-9.7468033E-002	-1.9598036E-001	0
1.860257153005950E+003	-9.8689593E-002	-1.9598162E-001	0
1.860258153005925E+003	-9.9777542E-002	-1.9598608E-001	0
1.860259153005900E+003	-1.0092276E-001	-1.9598290E-001	0
1.860260153005875E+003	-1.0216340E-001	-1.9598036E-001	0
1.860261153005849E+003	-1.0327044E-001	-1.9597971E-001	0
1.860262353005819E+003	-1.0458743E-001	-1.9598672E-001	0
1.860263553005789E+003	-1.0577082E-001	-1.9598290E-001	0
1.860264553005763E+003	-1.0691603E-001	-1.9598036E-001	0
1.860265553005738E+003	-1.0794672E-001	-1.9597971E-001	0
1.860266553005713E+003	-1.0905375E-001	-1.9598353E-001	0
1.860267553005688E+003	-1.1016079E-001	-1.9598734E-001	0
1.860268753005657E+003	-1.1130600E-001	-1.9598290E-001	0
1.860269753005632E+003	-1.1247030E-001	-1.9598162E-001	0
1.860270953005602E+003	-1.1367278E-001	-1.9597781E-001	0
1.860272153005571E+003	-1.1481798E-001	-1.9598544E-001	0
1.860273353005541E+003	-1.1607772E-001	-1.9598226E-001	0
1.860274553005511E+003	-1.1724202E-001	-1.9598226E-001	0
1.860275953005475E+003	-1.1852083E-001	-1.9598798E-001	0
1.860277153005445E+003	-1.1964696E-001	-1.9598672E-001	0
1.860278353005415E+003	-1.2073491E-001	-1.9598290E-001	0
1.860279553005385E+003	-1.2182286E-001	-1.9598417E-001	0
1.860280753005354E+003	-1.2300625E-001	-1.9598162E-001	0
1.860282153005319E+003	-1.2422781E-001	-1.9597590E-001	0
1.860283553005283E+003	-1.2541118E-001	-1.9598290E-001	0
1.860284753005253E+003	-1.2649913E-001	-1.9598353E-001	0
1.860285953005223E+003	-1.2754892E-001	-1.9597971E-001	0
1.860287153005193E+003	-1.2856051E-001	-1.9598672E-001	0
1.860288553005157E+003	-1.2964846E-001	-1.9598544E-001	0
1.860289753005127E+003	-1.3067916E-001	-1.9598481E-001	0
1.860291153005091E+003	-1.3182437E-001	-1.9597781E-001	0
1.860292553005056E+003	-1.3302684E-001	-1.9598544E-001	0
1.860293953005021E+003	-1.3405754E-001	-1.9598672E-001	0
1.860295353004985E+003	-1.3508822E-001	-1.9598098E-001	0
1.860296753004950E+003	-1.3615708E-001	-1.9598290E-001	0
1.860297953004920E+003	-1.3720687E-001	-1.9597653E-001	0
1.860299553004879E+003	-1.3833299E-001	-1.9598481E-001	0
1.860301153004839E+003	-1.3947821E-001	-1.9598098E-001	0
1.860302553004803E+003	-1.4058524E-001	-1.9598863E-001	0
1.860304153004763E+003	-1.4165410E-001	-1.9598290E-001	0
1.860305553004728E+003	-1.4272296E-001	-1.9598290E-001	0
1.860307353004682E+003	-1.4375366E-001	-1.9599053E-001	0
1.860308753004647E+003	-1.4476526E-001	-1.9598098E-001	0
1.860310353004606E+003	-1.4579596E-001	-1.9598608E-001	0
1.860311753004571E+003	-1.4684573E-001	-1.9598353E-001	0
1.860313353004531E+003	-1.4793368E-001	-1.9598925E-001	0
1.860315353004480E+003	-1.4900254E-001	-1.9598353E-001	0
1.860317153004435E+003	-1.5020502E-001	-1.9598608E-001	0
1.860319153004384E+003	-1.5133114E-001	-1.9598544E-001	0
1.860320953004339E+003	-1.5249543E-001	-1.9598989E-001	0
1.860322953004288E+003	-1.5352613E-001	-1.9598417E-001	0
1.860324753004243E+003	-1.5472859E-001	-1.9598290E-001	0
1.860327153004182E+003	-1.5598834E-001	-1.9598544E-001	0
1.860329153004132E+003	-1.5713353E-001	-1.9598798E-001	0
1.860331353004076E+003	-1.5816423E-001	-1.9598226E-001	0
1.860333353004025E+003	-1.5925218E-001	-1.9598734E-001	0
1.860335553003970E+003	-1.6026379E-001	-1.9598290E-001	0
1.860337353003924E+003	-1.6127539E-001	-1.9598226E-001	0
1.860339753003864E+003	-1.6234425E-001	-1.9598162E-001	0
1.860342153003803E+003	-1.6337495E-001	-1.9598226E-001	0
1.860344753003737E+003	-1.6446289E-001	-1.9598925E-001	0
1.860347353003672E+003	-1.6574171E-001	-1.9598734E-001	0
1.860350153003601E+003	-1.6675332E-001	-1.9598734E-001	0
1.860352753003535E+003	-1.6776492E-001	-1.9598417E-001	0
1.860355553003465E+003	-1.6877653E-001	-1.9598226E-001	0
1.860358153003399E+003	-1.6978812E-001	-1.9598734E-001	0
1.860361353003318E+003	-1.7091425E-001	-1.9598672E-001	0
1.860364353003242E+003	-1.7198312E-001	-1.9598608E-001	0
1.860368353003141E+003	-1.7307107E-001	-1.9598290E-001	0
1.860371953003050E+003	-1.7415902E-001	-1.9598481E-001	0
1.860376353002939E+003	-1.7517062E-001	-1.9598544E-001	0
1.860381153002818E+003	-1.7623949E-001	-1.9598608E-001	0
1.860387153002666E+003	-1.7725109E-001	-1.9598098E-001	0
1.860394553002479E+003	-1.7835812E-001	-1.9598608E-001	0
1.860434553001469E+003	-1.7732744E-001	-1.9597971E-001	0
1.860440353001322E+003	-1.7629674E-001	-1.9597781E-001	0
1.860446553001166E+003	-1.7526606E-001	-1.9597845E-001	0
1.860451753001034E+003	-1.7425445E-001	-1.9598417E-001	0
1.860456153000923E+003	-1.7314741E-001	-1.9597971E-001	0
1.860460953000802E+003	-1.7200220E-001	-1.9598036E-001	0
1.860465553000686E+003	-1.7095242E-001	-1.9598226E-001	0
1.860469353000590E+003	-1.6994083E-001	-1.9598417E-001	0
1.860473353000489E+003	-1.6889104E-001	-1.9598290E-001	0
1.860476153000418E+003	-1.6787945E-001	-1.9598481E-001	0
1.860480553000307E+003	-1.6686784E-001	-1.9598417E-001	0
1.860484153000216E+003	-1.6583715E-001	-1.9598290E-001	0
1.860487553000130E+003	-1.6482554E-001	-1.9598417E-001	0
1.860491153000039E+003	-1.6379486E-001	-1.9598290E-001	0
1.860494352999958E+003	-1.6272599E-001	-1.9597907E-001	0
1.860498352999857E+003	-1.6169530E-001	-1.9598290E-001	0
1.860501952999766E+003	-1.6049282E-001	-1.9598481E-001	0
1.860505752999670E+003	-1.5946214E-001	-1.9597845E-001	0
1.860508952999589E+003	-1.5845053E-001	-1.9598481E-001	0
1.860512552999498E+003	-1.5736258E-001	-1.9598989E-001	0
1.860516352999402E+003	-1.5635099E-001	-1.9597971E-001	0
1.860519952999312E+003	-1.5533938E-001	-1.9598672E-001	0
1.860523352999226E+003	-1.5428960E-001	-1.9597271E-001	0
1.860526952999135E+003	-1.5323982E-001	-1.9598162E-001	0
1.860530752999039E+003	-1.5219004E-001	-1.9598672E-001	0
1.860534752998938E+003	-1.5110210E-001	-1.9598290E-001	0
1.860538752998837E+003	-1.5007141E-001	-1.9597653E-001	0
1.860542352998746E+003	-1.4898345E-001	-1.9598417E-001	0
1.860546352998645E+003	-1.4793368E-001	-1.9598544E-001	0
1.860550352998544E+003	-1.4684573E-001	-1.9599244E-001	0
1.860554952998427E+003	-1.4577687E-001	-1.9598036E-001	0
1.860558952998326E+003	-1.4476526E-001	-1.9598036E-001	0
1.860563152998220E+003	-1.4373457E-001	-1.9598098E-001	0
1.860567352998114E+003	-1.4272296E-001	-1.9598481E-001	0
1.860572152997993E+003	-1.4165410E-001	-1.9598544E-001	0
1.860575952997897E+003	-1.4064249E-001	-1.9598608E-001	0
1.860581152997765E+003	-1.3959272E-001	-1.9598544E-001	0
1.860586552997629E+003	-1.3848568E-001	-1.9598353E-001	0
1.860591152997513E+003	-1.3741682E-001	-1.9598798E-001	0
1.860597352997356E+003	-1.3629070E-001	-1.9598863E-001	0
1.860602552997225E+003	-1.3524091E-001	-1.9598353E-001	0
1.860608152997083E+003	-1.3422932E-001	-1.9597907E-001	0
1.860614352996927E+003	-1.3302684E-001	-1.9598290E-001	0
1.860620752996765E+003	-1.3201524E-001	-1.9598417E-001	0
1.860626752996614E+003	-1.3100363E-001	-1.9598036E-001	0
1.860633552996442E+003	-1.2997295E-001	-1.9598098E-001	0
1.860640552996265E+003	-1.2888500E-001	-1.9598353E-001	0
1.860647752996083E+003	-1.2787339E-001	-1.9598353E-001	0
1.860655352995891E+003	-1.2686178E-001	-1.9598672E-001	0
1.860663352995689E+003	-1.2577383E-001	-1.9598734E-001	0
1.860672152995467E+003	-1.2472406E-001	-1.9598162E-001	0
1.860681152995239E+003	-1.2367429E-001	-1.9598098E-001	0
1.860690952994992E+003	-1.2252907E-001	-1.9598417E-001	0
1.860702152994709E+003	-1.2136478E-001	-1.9598290E-001	0
1.860714552994395E+003	-1.2031500E-001	-1.9598672E-001	0
1.860725952994108E+003	-1.1922705E-001	-1.9598290E-001	0
1.860739152993774E+003	-1.1815818E-001	-1.9599053E-001	0
1.860752752993430E+003	-1.1712749E-001	-1.9598863E-001	0
1.860767152993067E+003	-1.1607772E-001	-1.9598417E-001	0
1.860782352992683E+003	-1.1504703E-001	-1.9598162E-001	0
1.860799752992243E+003	-1.1395907E-001	-1.9598734E-001	0
1.860819152991753E+003	-1.1289021E-001	-1.9598544E-001	0
1.860840352991218E+003	-1.1178318E-001	-1.9598226E-001	0
1.860864352990611E+003	-1.1071431E-001	-1.9598226E-001	0
1.860890352989954E+003	-1.0970271E-001	-1.9598481E-001	0
1.860917952989257E+003	-1.0867202E-001	-1.9598544E-001	0
1.860950352988439E+003	-1.0766041E-001	-1.9598162E-001	0
1.860985952987539E+003	-1.0662972E-001	-1.9598544E-001	0
1.861025552986539E+003	-1.0559903E-001	-1.9598798E-001	0
1.861071952985367E+003	-1.0456835E-001	-1.9598036E-001	0
1.861118552984190E+003	-1.0355674E-001	-1.9598672E-001	0
1.861188352982426E+003	-1.0244970E-001	-1.9598226E-001	0
1.861267552980426E+003	-1.0143810E-001	-1.9598290E-001	0
1.861354352978233E+003	-1.0038833E-001	-1.9598544E-001	0
1.861470352975302E+003	-9.9338546E-002	-1.9598162E-001	0
1.861613752971680E+003	-9.8307855E-002	-1.9598290E-001	0
1.861789552967239E+003	-9.7277164E-002	-1.9598798E-001	0
1.862049352960676E+003	-9.6265562E-002	-1.9598734E-001	0
1.862434152950955E+003	-9.5215783E-002	-1.9599116E-001	0
1.863137752933180E+003	-9.4166011E-002	-1.9598481E-001	0
1.871596152719503E+003	-9.5177613E-002	-1.9598672E-001	0
1.876398352598189E+003	-9.6208304E-002	-1.9598863E-001	0
1.882828552435749E+003	-9.7219907E-002	-1.9598925E-001	0
1.892828552183128E+003	-9.7811595E-002	-1.9598798E-001	0
1.902828551930506E+003	-9.8193333E-002	-1.9598226E-001	0
1.912828551677885E+003	-9.8307855E-002	-1.9598226E-001	0
1.922828551425264E+003	-9.8116986E-002	-1.9598608E-001	0
1.932828551172643E+003	-9.7926117E-002	-1.9598863E-001	0
1.942828550920021E+003	-9.7487122E-002	-1.9598672E-001	0
1.952828550667400E+003	-9.7048126E-002	-1.9598417E-001	0
1.962828550414779E+003	-9.6666388E-002	-1.9598863E-001	0
1.972828550162158E+003	-9.6151039E-002	-1.9598544E-001	0
1.982828549909536E+003	-9.5692955E-002	-1.9598863E-001	0
1.992828549656915E+003	-9.5120348E-002	-1.9598544E-001	0
2.002828549404294E+003	-9.4643176E-002	-1.9598608E-001	0
2.012828549151673E+003	-9.4337791E-002	-1.9598989E-001	0
2.022828548899051E+003	-9.3746096E-002	-1.9599180E-001	0
2.032828548646430E+003	-9.3364358E-002	-1.9598608E-001	0
2.042828548393809E+003	-9.2810839E-002	-1.9598290E-001	0
2.052828548141188E+003	-9.2467278E-002	-1.9598672E-001	0
2.062828547888566E+003	-9.2028283E-002	-1.9598925E-001	0
2.072828547635945E+003	-9.1608368E-002	-1.9598863E-001	0
2.082828547383324E+003	-9.1188461E-002	-1.9599116E-001	0
2.092828547130703E+003	-9.0863980E-002	-1.9598544E-001	0
2.102828546878081E+003	-9.0386808E-002	-1.9598290E-001	0
2.112828546625460E+003	-8.9966901E-002	-1.9598989E-001	0
2.122828546372839E+003	-8.9718774E-002	-1.9598925E-001	0
2.132828546120218E+003	-8.9356117E-002	-1.9598290E-001	0
2.142828545867596E+003	-8.9069813E-002	-1.9598544E-001	0
2.152828545614975E+003	-8.8688083E-002	-1.9598672E-001	0
2.162828545362354E+003	-8.8420860E-002	-1.9599180E-001	0
2.172828545109733E+003	-8.8153645E-002	-1.9599053E-001	0
2.182828544857111E+003	-8.7886430E-002	-1.9598481E-001	0
2.192828544604490E+003	-8.7619215E-002	-1.9599180E-001	0
2.202828544351869E+003	-8.7237477E-002	-1.9599053E-001	0
2.212828544099248E+003	-8.7046608E-002	-1.9598481E-001	0
2.222828543846626E+003	-8.6874828E-002	-1.9598798E-001	0
2.232828543594005E+003	-8.6569436E-002	-1.9598544E-001	0
2.242828543341384E+003	-8.6397655E-002	-1.9598353E-001	0
2.252828543088763E+003	-8.6206786E-002	-1.9598672E-001	0
2.262828542836141E+003	-8.5939571E-002	-1.9598925E-001	0
2.272828542583520E+003	-8.5748702E-002	-1.9598608E-001	0
2.282828542330899E+003	-8.5538752E-002	-1.9598544E-001	0
2.292828542078278E+003	-8.5328795E-002	-1.9598608E-001	0
2.302828541825656E+003	-8.5061580E-002	-1.9598734E-001	0
2.312828541573035E+003	-8.4966145E-002	-1.9598608E-001	0
2.322828541320414E+003	-8.4775276E-002	-1.9598989E-001	0
2.332828541067793E+003	-8.4584408E-002	-1.9598672E-001	0
2.342828540815171E+003	-8.4393539E-002	-1.9598098E-001	0
2.352828540562550E+003	-8.4221758E-002	-1.9598544E-001	0
2.362828540309929E+003	-8.4145412E-002	-1.9598226E-001	0
2.372828540057308E+003	-8.3897278E-002	-1.9598672E-001	0
2.382828539804686E+003	-8.3782755E-002	-1.9598863E-001	0
2.392828539552065E+003	-8.3706409E-002	-1.9598925E-001	0
2.402828539299444E+003	-8.3572805E-002	-1.9598863E-001	0
2.412828539046823E+003	-8.3420105E-002	-1.9598798E-001	0
2.422828538794201E+003	-8.3229236E-002	-1.9598672E-001	0
2.432828538541580E+003	-8.3076544E-002	-1.9599116E-001	0
2.442828538288959E+003	-8.2923852E-002	-1.9598353E-001	0
2.452828538036338E+003	-8.2790241E-002	-1.9597971E-001	0
2.462828537783716E+003	-8.2618460E-002	-1.9598608E-001	0
2.472828537531095E+003	-8.2561202E-002	-1.9598353E-001	0
2.482828537278474E+003	-8.2332157E-002	-1.9598672E-001	0
2.492828537025853E+003	-8.2274899E-002	-1.9598544E-001	0
2.502828536773231E+003	-8.2103118E-002	-1.9598353E-001	0
2.512828536520610E+003	-8.2141288E-002	-1.9598608E-001	0
2.522828536267989E+003	-8.1969507E-002	-1.9598672E-001	0
2.532828536015368E+003	-8.1893161E-002	-1.9599497E-001	0
2.542828535762746E+003	-8.1702292E-002	-1.9599625E-001	0
2.552828535510125E+003	-8.1683204E-002	-1.9598734E-001	0
2.562828535257504E+003	-8.1454165E-002	-1.9598798E-001	0
2.572828535004883E+003	-8.1492335E-002	-1.9598989E-001	0
2.582828534752261E+003	-8.1320554E-002	-1.9598863E-001	0
2.592828534499640E+003	-8.1225120E-002	-1.9598672E-001	0
2.602828534247019E+003	-8.1225120E-002	-1.9598863E-001	0
2.612828533994398E+003	-8.1072427E-002	-1.9598226E-001	0
2.622828533741776E+003	-8.0996074E-002	-1.9598098E-001	0
2.632828533489155E+003	-8.0881558E-002	-1.9598863E-001	0
2.642828533236534E+003	-8.0805212E-002	-1.9598608E-001	0
2.652828532983913E+003	-8.0747947E-002	-1.9599180E-001	0
2.662828532731291E+003	-8.0576167E-002	-1.9598798E-001	0
2.672828532478670E+003	-8.0480732E-002	-1.9597907E-001	0
2.682828532226049E+003	-8.0347121E-002	-1.9599053E-001	0
2.692828531973428E+003	-8.0385298E-002	-1.9598734E-001	0
2.702828531720807E+003	-8.0232605E-002	-1.9598734E-001	0
2.712828531468185E+003	-8.0060825E-002	-1.9598353E-001	0
2.722828531215564E+003	-7.9946302E-002	-1.9598290E-001	0
2.732828530962943E+003	-8.0003560E-002	-1.9598734E-001	0
2.742828530710322E+003	-8.0003560E-002	-1.9598798E-001	0
2.752828530457700E+003	-7.9984471E-002	-1.9598672E-001	0
2.762828530205079E+003	-7.9927213E-002	-1.9598353E-001	0
2.772828529952458E+003	-7.9869956E-002	-1.9599053E-001	0
2.782828529699837E+003	-7.9640910E-002	-1.9598798E-001	0
2.792828529447215E+003	-7.9583652E-002	-1.9598925E-001	0
2.802828529194594E+003	-7.9583652E-002	-1.9598353E-001	0
2.812828528941973E+003	-7.9583652E-002	-1.9599116E-001	0
2.822828528689352E+003	-7.9507299E-002	-1.9599053E-001	0
2.832828528436730E+003	-7.9316437E-002	-1.9598863E-001	0
2.842828528184109E+003	-7.9335518E-002	-1.9598290E-001	0
2.852828527931488E+003	-7.9182826E-002	-1.9598290E-001	0
2.862828527678867E+003	-7.9221003E-002	-1.9598925E-001	0
2.872828527426245E+003	-7.9011045E-002	-1.9598798E-001	0
2.882828527173624E+003	-7.8896523E-002	-1.9598608E-001	0
2.892828526921003E+003	-7.8877434E-002	-1.9599053E-001	0
2.902828526668382E+003	-7.8991957E-002	-1.9598989E-001	0
2.912828526415760E+003	-7.8820176E-002	-1.9598481E-001	0
2.922828526163139E+003	-7.8686565E-002	-1.9598353E-001	0
2.932828525910518E+003	-7.8743830E-002	-1.9598863E-001	0
2.942828525657897E+003	-7.8514785E-002	-1.9598863E-001	0
2.952828525405275E+003	-7.8667484E-002	-1.9598544E-001	0
2.962828525152654E+003	-7.8591131E-002	-1.9598481E-001	0
2.972828524900033E+003	-7.8495696E-002	-1.9599053E-001	0
2.982828524647412E+003	-7.8438438E-002	-1.9598544E-001	0
2.992828524394790E+003	-7.8400262E-002	-1.9598925E-001	0
3.002828524142169E+003	-7.8381181E-002	-1.9598925E-001	0
3.012828523889548E+003	-7.8323916E-002	-1.9598417E-001	0
3.022828523636927E+003	-7.8323916E-002	-1.9598290E-001	0
3.032828523384305E+003	-7.8304827E-002	-1.9598925E-001	0
3.042828523131684E+003	-7.8152135E-002	-1.9598608E-001	0
3.052828522879063E+003	-7.8094877E-002	-1.9599053E-001	0
3.062828522626442E+003	-7.8094877E-002	-1.9598925E-001	0
3.072828522373820E+003	-7.8094877E-002	-1.9598353E-001	0
3.082828522121199E+003	-7.7980354E-002	-1.9598226E-001	0
3.092828521868578E+003	-7.7904008E-002	-1.9599180E-001	0
3.102828521615957E+003	-7.7942178E-002	-1.9599371E-001	0
3.112828521363335E+003	-7.7846743E-002	-1.9598036E-001	0
3.122828521110714E+003	-7.7732228E-002	-1.9598290E-001	0
3.132828520858093E+003	-7.7808574E-002	-1.9598544E-001	0
3.142828520605472E+003	-7.7770397E-002	-1.9598734E-001	0
3.152828520352850E+003	-7.7694051E-002	-1.9598226E-001	0
3.162828520100229E+003	-7.7694051E-002	-1.9598608E-001	0
3.172828519847608E+003	-7.7560440E-002	-1.9598798E-001	0
3.182828519594987E+003	-7.7503182E-002	-1.9598544E-001	0
3.192828519342365E+003	-7.7426836E-002	-1.9598544E-001	0
3.202828519089744E+003	-7.7617705E-002	-1.9598544E-001	0
3.212828518837123E+003	-7.7426836E-002	-1.9599053E-001	0
3.222828518584502E+003	-7.7369578E-002	-1.9598672E-001	0
3.232828518331880E+003	-7.7426836E-002	-1.9598608E-001	0
3.242828518079259E+003	-7.7312313E-002	-1.9598608E-001	0
3.252828517826638E+003	-7.7235967E-002	-1.9599053E-001	0
3.262828517574017E+003	-7.7274144E-002	-1.9599180E-001	0
3.272828517321395E+003	-7.7274144E-002	-1.9598863E-001	0
3.282828517068774E+003	-7.7140532E-002	-1.9599116E-001	0
3.292828516816153E+003	-7.7159621E-002	-1.9598734E-001	0
3.302828516563532E+003	-7.7121444E-002	-1.9598481E-001	0
3.312828516310910E+003	-7.7159621E-002	-1.9598989E-001	0
3.322828516058289E+003	-7.7045098E-002	-1.9598989E-001	0
3.332828515805668E+003	-7.7102356E-002	-1.9598481E-001	0
3.342828515553047E+003	-7.7006921E-002	-1.9598989E-001	0
3.352828515300425E+003	-7.6911487E-002	-1.9599180E-001	0
3.362828515047804E+003	-7.6949663E-002	-1.9599053E-001	0
3.372828514795183E+003	-7.6835141E-002	-1.9598989E-001	0
3.382828514542562E+003	-7.6854229E-002	-1.9598544E-001	0
3.392828514289940E+003	-7.6816052E-002	-1.9598544E-001	0
3.402828514037319E+003	-7.6777883E-002	-1.9598417E-001	0
3.412828513784698E+003	-7.6816052E-002	-1.9598734E-001	0
3.422828513532077E+003	-7.6873317E-002	-1.9598798E-001	0
3.432828513279455E+003	-7.6739706E-002	-1.9599307E-001	0
3.442828513026834E+003	-7.6625191E-002	-1.9598036E-001	0
3.452828512774213E+003	-7.6548837E-002	-1.9599116E-001	0
3.462828512521592E+003	-7.6663360E-002	-1.9598353E-001	0
3.472828512268970E+003	-7.6701537E-002	-1.9598734E-001	0
3.482828512016349E+003	-7.6491579E-002	-1.9598353E-001	0
3.492828511763728E+003	-7.6606102E-002	-1.9598162E-001	0
3.502828511511107E+003	-7.6453403E-002	-1.9598098E-001	0
3.512828511258485E+003	-7.6472491E-002	-1.9598672E-001	0
3.522828511005864E+003	-7.6434322E-002	-1.9598481E-001	0
3.532828510753243E+003	-7.6491579E-002	-1.9598863E-001	0
3.542828510500622E+003	-7.6415233E-002	-1.9598544E-001	0
3.552828510248000E+003	-7.6606102E-002	-1.9598989E-001	0
3.562828509995379E+003	-7.6453403E-002	-1.9598989E-001	0
3.572828509742758E+003	-7.6300710E-002	-1.9598290E-001	0
3.582828509490137E+003	-7.6377057E-002	-1.9598226E-001	0
3.592828509237515E+003	-7.6396145E-002	-1.9599116E-001	0
3.602828508984894E+003	-7.6300710E-002	-1.9598226E-001	0
3.612828508732273E+003	-7.6262534E-002	-1.9598863E-001	0
3.622828508479652E+003	-7.6243453E-002	-1.9598672E-001	0
3.632828508227030E+003	-7.6167099E-002	-1.9598863E-001	0
3.642828507974409E+003	-7.6262534E-002	-1.9599116E-001	0
3.652828507721788E+003	-7.6205276E-002	-1.9598226E-001	0
3.660205707535424E+003	-7.6167099E-002	-1.9597781E-001	0