time/s	Ewe/V	I/mA	error	
7.220579817592807E+001	4.3475769E-002	-1.9476625E-001	0
7.220599817592301E+001	3.4735076E-002	-1.9597770E-001	0
7.220619817591796E+001	3.1039171E-002	-1.9598342E-001	0
7.220639817591291E+001	2.8881786E-002	-1.9597515E-001	0
7.220659817590786E+001	2.7335342E-002	-1.9598027E-001	0
7.220679817590280E+001	2.6208920E-002	-1.9597834E-001	0
7.220719817589270E+001	2.4509743E-002	-1.9598217E-001	0
7.220759817588259E+001	2.3096941E-002	-1.9597834E-001	0
7.220799817587249E+001	2.1722326E-002	-1.9598278E-001	0
7.220839817586239E+001	2.0462260E-002	-1.9598088E-001	0
7.220879817585228E+001	1.9393114E-002	-1.9598724E-001	0
7.220939817583712E+001	1.7846670E-002	-1.9597706E-001	0
7.220999817582197E+001	1.6376594E-002	-1.9598278E-001	0
7.221059817580681E+001	1.4982886E-002	-1.9598408E-001	0
7.221119817579165E+001	1.3570085E-002	-1.9598342E-001	0
7.221179817577649E+001	1.2290928E-002	-1.9598027E-001	0
7.221239817576134E+001	1.0954496E-002	-1.9598342E-001	0
7.221299817574618E+001	9.7898897E-003	-1.9597897E-001	0
7.221359817573102E+001	8.5489163E-003	-1.9598724E-001	0
7.221419817571586E+001	7.3079430E-003	-1.9598533E-001	0
7.221479817570071E+001	6.2197046E-003	-1.9598152E-001	0
7.221539817568555E+001	4.9023638E-003	-1.9598533E-001	0
7.221599817567039E+001	3.8523094E-003	-1.9597897E-001	0
7.221679817565018E+001	2.4013254E-003	-1.9597897E-001	0
7.221739817563503E+001	1.2558115E-003	-1.9598217E-001	0
7.221819817561482E+001	-2.3345610E-005	-1.9598027E-001	0
7.221879817559966E+001	-1.1688593E-003	-1.9598661E-001	0
7.221959817557945E+001	-2.4480163E-003	-1.9598533E-001	0
7.222039817555924E+001	-3.6889897E-003	-1.9598469E-001	0
7.222099817554408E+001	-4.7772275E-003	-1.9598027E-001	0
7.222179817552387E+001	-6.0182009E-003	-1.9598724E-001	0
7.222239817550872E+001	-7.0491633E-003	-1.9598599E-001	0
7.222319817548851E+001	-8.2901362E-003	-1.9597834E-001	0
7.222399817546830E+001	-9.5311096E-003	-1.9598217E-001	0
7.222459817545314E+001	-1.0542980E-002	-1.9597834E-001	0
7.222539817543293E+001	-1.1593034E-002	-1.9598088E-001	0
7.222619817541272E+001	-1.2738548E-002	-1.9598599E-001	0
7.222699817539251E+001	-1.3960429E-002	-1.9598027E-001	0
7.222779817537230E+001	-1.5086851E-002	-1.9598088E-001	0
7.222859817535209E+001	-1.6327824E-002	-1.9598916E-001	0
7.222939817533188E+001	-1.7358787E-002	-1.9598408E-001	0
7.223019817531167E+001	-1.8580668E-002	-1.9598408E-001	0
7.223119817528641E+001	-1.9707089E-002	-1.9597961E-001	0
7.223199817526620E+001	-2.0890787E-002	-1.9598217E-001	0
7.223299817524094E+001	-2.2112669E-002	-1.9598217E-001	0
7.223379817522073E+001	-2.3181815E-002	-1.9598533E-001	0
7.223459817520052E+001	-2.4327328E-002	-1.9597770E-001	0
7.223559817517526E+001	-2.5568303E-002	-1.9598278E-001	0
7.223639817515505E+001	-2.6599264E-002	-1.9598088E-001	0
7.223739817512978E+001	-2.7763870E-002	-1.9598278E-001	0
7.223839817510452E+001	-2.9004844E-002	-1.9598408E-001	0
7.223939817507926E+001	-3.0188540E-002	-1.9598661E-001	0
7.224039817505400E+001	-3.1219503E-002	-1.9598533E-001	0
7.224139817502873E+001	-3.2403201E-002	-1.9598152E-001	0
7.224239817500347E+001	-3.3605989E-002	-1.9598916E-001	0
7.224339817497821E+001	-3.4694228E-002	-1.9598217E-001	0
7.224459817494790E+001	-3.5992477E-002	-1.9597389E-001	0
7.224559817492263E+001	-3.7118897E-002	-1.9598027E-001	0
7.224659817489737E+001	-3.8130768E-002	-1.9598408E-001	0
7.224779817486706E+001	-3.9238099E-002	-1.9598724E-001	0
7.224879817484180E+001	-4.0364522E-002	-1.9598027E-001	0
7.224999817481148E+001	-4.1605495E-002	-1.9597961E-001	0
7.225099817478622E+001	-4.2655550E-002	-1.9598027E-001	0
7.225219817475590E+001	-4.3762878E-002	-1.9598408E-001	0
7.225339817472559E+001	-4.4984758E-002	-1.9598469E-001	0
7.225459817469527E+001	-4.6015721E-002	-1.9597961E-001	0
7.225599817465991E+001	-4.7218513E-002	-1.9597834E-001	0
7.225719817462959E+001	-4.8287656E-002	-1.9598408E-001	0
7.225839817459928E+001	-4.9337711E-002	-1.9597961E-001	0
7.225959817456896E+001	-5.0425950E-002	-1.9598217E-001	0
7.226099817453360E+001	-5.1571462E-002	-1.9598342E-001	0
7.226219817450328E+001	-5.2621517E-002	-1.9597770E-001	0
7.226359817446792E+001	-5.3786125E-002	-1.9598027E-001	0
7.226499817443255E+001	-5.4855268E-002	-1.9598088E-001	0
7.226639817439718E+001	-5.6000784E-002	-1.9598342E-001	0
7.226799817435676E+001	-5.7127204E-002	-1.9598278E-001	0
7.226939817432140E+001	-5.8177259E-002	-1.9598469E-001	0
7.227079817428603E+001	-5.9360959E-002	-1.9598217E-001	0
7.227239817424561E+001	-6.0391922E-002	-1.9598342E-001	0
7.227379817421024E+001	-6.1422881E-002	-1.9597897E-001	0
7.227559817416477E+001	-6.2721126E-002	-1.9598852E-001	0
7.227739817411930E+001	-6.3866645E-002	-1.9598152E-001	0
7.227919817407383E+001	-6.4935789E-002	-1.9598599E-001	0
7.228099817402835E+001	-6.6081300E-002	-1.9598217E-001	0
7.228279817398288E+001	-6.7169540E-002	-1.9598724E-001	0
7.228439817394246E+001	-6.8219595E-002	-1.9598217E-001	0
7.228639817389194E+001	-6.9288738E-002	-1.9598724E-001	0
7.228819817384647E+001	-7.0357889E-002	-1.9597834E-001	0
7.229019817379594E+001	-7.1369760E-002	-1.9598599E-001	0
7.229199817375047E+001	-7.2400719E-002	-1.9598027E-001	0
7.229419817369489E+001	-7.3508054E-002	-1.9598152E-001	0
7.229639817363932E+001	-7.4577197E-002	-1.9598408E-001	0
7.229859817358374E+001	-7.5684525E-002	-1.9597706E-001	0
7.230099817352311E+001	-7.6849133E-002	-1.9598408E-001	0
7.230379817345238E+001	-7.7918276E-002	-1.9597961E-001	0
7.230579817340185E+001	-7.8949243E-002	-1.9597834E-001	0
7.230819817334122E+001	-7.9961114E-002	-1.9598278E-001	0
7.231099817327049E+001	-8.1068441E-002	-1.9598408E-001	0
7.231359817320481E+001	-8.2175769E-002	-1.9598027E-001	0
7.231659817312902E+001	-8.3187640E-002	-1.9598278E-001	0
7.231959817305324E+001	-8.4390432E-002	-1.9598278E-001	0
7.232259817297745E+001	-8.5421391E-002	-1.9598724E-001	0
7.232559817290166E+001	-8.6490542E-002	-1.9598278E-001	0
7.232879817282083E+001	-8.7502412E-002	-1.9598217E-001	0
7.233239817272988E+001	-8.8552468E-002	-1.9597961E-001	0
7.233599817263894E+001	-8.9602523E-002	-1.9598278E-001	0
7.233959817254799E+001	-9.0614393E-002	-1.9598342E-001	0
7.234339817245200E+001	-9.1645353E-002	-1.9598724E-001	0
7.234739817235095E+001	-9.2676312E-002	-1.9598088E-001	0
7.235119817225495E+001	-9.3688183E-002	-1.9598027E-001	0
7.235539817214885E+001	-9.4700053E-002	-1.9598408E-001	0
7.235999817203265E+001	-9.5731020E-002	-1.9598852E-001	0
7.236479817191139E+001	-9.6838348E-002	-1.9597834E-001	0
7.237019817177497E+001	-9.7869307E-002	-1.9598088E-001	0
7.237499817165372E+001	-9.8900273E-002	-1.9598469E-001	0
7.238059817151225E+001	-9.9969417E-002	-1.9598599E-001	0
7.238579817138088E+001	-1.0098129E-001	-1.9598852E-001	0
7.239199817122426E+001	-1.0199316E-001	-1.9598217E-001	0
7.239859817105753E+001	-1.0306231E-001	-1.9598152E-001	0
7.240439817091101E+001	-1.0409327E-001	-1.9598088E-001	0
7.241139817073417E+001	-1.0514332E-001	-1.9598469E-001	0
7.241939817053208E+001	-1.0625065E-001	-1.9598088E-001	0
7.242719817033503E+001	-1.0731980E-001	-1.9598469E-001	0
7.243519817013294E+001	-1.0835076E-001	-1.9598088E-001	0
7.244379816991568E+001	-1.0943900E-001	-1.9598979E-001	0
7.245259816969337E+001	-1.1052724E-001	-1.9598533E-001	0
7.246219816945086E+001	-1.1155820E-001	-1.9598599E-001	0
7.247159816921339E+001	-1.1260825E-001	-1.9598217E-001	0
7.248139816896582E+001	-1.1362012E-001	-1.9598724E-001	0
7.249179816870310E+001	-1.1467018E-001	-1.9598469E-001	0
7.250279816842522E+001	-1.1568205E-001	-1.9598852E-001	0
7.251459816812712E+001	-1.1673211E-001	-1.9597961E-001	0
7.252619816783408E+001	-1.1778216E-001	-1.9597389E-001	0
7.253879816751578E+001	-1.1883222E-001	-1.9598408E-001	0
7.255259816716716E+001	-1.1986317E-001	-1.9598027E-001	0
7.256459816686402E+001	-1.2087505E-001	-1.9597515E-001	0
7.257819816652045E+001	-1.2194419E-001	-1.9598469E-001	0
7.259299816614657E+001	-1.2303243E-001	-1.9598278E-001	0
7.260819816576259E+001	-1.2406339E-001	-1.9598217E-001	0
7.262279816539376E+001	-1.2507527E-001	-1.9598408E-001	0
7.263939816497441E+001	-1.2608713E-001	-1.9598469E-001	0
7.265319816462579E+001	-1.2711810E-001	-1.9598408E-001	0
7.267039816419128E+001	-1.2812996E-001	-1.9598661E-001	0
7.268719816376688E+001	-1.2914184E-001	-1.9598342E-001	0
7.270399816334248E+001	-1.3023007E-001	-1.9598342E-001	0
7.272359816284734E+001	-1.3128012E-001	-1.9598599E-001	0
7.274139816239767E+001	-1.3229200E-001	-1.9598790E-001	0
7.275819816197327E+001	-1.3330387E-001	-1.9598217E-001	0
7.277819816146803E+001	-1.3433483E-001	-1.9598790E-001	0
7.279639816100826E+001	-1.3540398E-001	-1.9598408E-001	0
7.281799816046259E+001	-1.3645403E-001	-1.9598217E-001	0
7.284059815989167E+001	-1.3752317E-001	-1.9598217E-001	0
7.286119815937127E+001	-1.3853505E-001	-1.9598217E-001	0
7.288199815884582E+001	-1.3956600E-001	-1.9598152E-001	0
7.289979815839615E+001	-1.4057788E-001	-1.9598342E-001	0
7.292419815777976E+001	-1.4160883E-001	-1.9598916E-001	0
7.294719815719873E+001	-1.4262071E-001	-1.9599043E-001	0
7.297059815660759E+001	-1.4363258E-001	-1.9598533E-001	0
7.299379815602151E+001	-1.4464445E-001	-1.9598979E-001	0
7.301799815541017E+001	-1.4567542E-001	-1.9597897E-001	0
7.304219815479883E+001	-1.4668728E-001	-1.9598342E-001	0
7.306799815414706E+001	-1.4771825E-001	-1.9598916E-001	0
7.309259815352561E+001	-1.4873011E-001	-1.9598342E-001	0
7.312039815282333E+001	-1.4979926E-001	-1.9598790E-001	0
7.315119815204525E+001	-1.5088750E-001	-1.9597770E-001	0
7.318219815126213E+001	-1.5191847E-001	-1.9598916E-001	0
7.321239815049921E+001	-1.5293033E-001	-1.9597706E-001	0
7.324459814968577E+001	-1.5399948E-001	-1.9598533E-001	0
7.328059814877633E+001	-1.5503044E-001	-1.9598278E-001	0
7.332079814776080E+001	-1.5604231E-001	-1.9598661E-001	0
7.335999814677052E+001	-1.5705419E-001	-1.9597834E-001	0
7.340299814568425E+001	-1.5806605E-001	-1.9597961E-001	0
7.346059814422915E+001	-1.5907793E-001	-1.9598724E-001	0
7.352899814250122E+001	-1.6010889E-001	-1.9598278E-001	0
7.388519813350285E+001	-1.5907793E-001	-1.9598533E-001	0
7.396439813150209E+001	-1.5806605E-001	-1.9598408E-001	0
7.402479812997626E+001	-1.5705419E-001	-1.9598408E-001	0
7.408559812844032E+001	-1.5600413E-001	-1.9598088E-001	0
7.415419812670734E+001	-1.5499227E-001	-1.9598217E-001	0
7.421419812519162E+001	-1.5396130E-001	-1.9598599E-001	0
7.427559812364052E+001	-1.5294942E-001	-1.9598469E-001	0
7.433959812202374E+001	-1.5193756E-001	-1.9598469E-001	0
7.439519812061917E+001	-1.5090659E-001	-1.9598599E-001	0
7.447239811866893E+001	-1.4985654E-001	-1.9598852E-001	0
7.454339811687532E+001	-1.4884467E-001	-1.9598088E-001	0
7.462159811489983E+001	-1.4783280E-001	-1.9598790E-001	0
7.470859811270202E+001	-1.4682093E-001	-1.9597961E-001	0
7.479979811039811E+001	-1.4578997E-001	-1.9598916E-001	0
7.490079810784664E+001	-1.4470173E-001	-1.9598599E-001	0
7.501779810489097E+001	-1.4365168E-001	-1.9598469E-001	0
7.514259810173826E+001	-1.4263980E-001	-1.9598469E-001	0
7.527159809847944E+001	-1.4160883E-001	-1.9598408E-001	0
7.543459809436172E+001	-1.4059697E-001	-1.9598599E-001	0
7.560399809008231E+001	-1.3958511E-001	-1.9598790E-001	0
7.580799808492884E+001	-1.3857323E-001	-1.9598342E-001	0
7.605219807875983E+001	-1.3752317E-001	-1.9598088E-001	0
7.631219807219168E+001	-1.3651131E-001	-1.9598790E-001	0
7.667199806310236E+001	-1.3548034E-001	-1.9598469E-001	0
7.709539805240638E+001	-1.3446847E-001	-1.9598217E-001	0
7.759559803977027E+001	-1.3345660E-001	-1.9598217E-001	0
7.824059802347620E+001	-1.3244472E-001	-1.9599234E-001	0
7.912959800101817E+001	-1.3143286E-001	-1.9598661E-001	0
8.037519796955166E+001	-1.3042098E-001	-1.9599171E-001	0
8.210259792591387E+001	-1.2940912E-001	-1.9598916E-001	0
8.447359786601737E+001	-1.2835906E-001	-1.9599234E-001	0
8.862559776112903E+001	-1.2734720E-001	-1.9598533E-001	0
9.439939761527057E+001	-1.2633532E-001	-1.9598217E-001	0
1.022869974160130E+002	-1.2532346E-001	-1.9598916E-001	0
1.122869971633918E+002	-1.2457887E-001	-1.9598661E-001	0
1.222869969107705E+002	-1.2377702E-001	-1.9598599E-001	0
1.322869966581493E+002	-1.2310880E-001	-1.9598533E-001	0
1.422869964055280E+002	-1.2234512E-001	-1.9598724E-001	0
1.522869961529068E+002	-1.2177236E-001	-1.9598852E-001	0
1.622869959002855E+002	-1.2114234E-001	-1.9598278E-001	0
1.722869956476643E+002	-1.2064594E-001	-1.9598916E-001	0
1.822869953950431E+002	-1.1999682E-001	-1.9598599E-001	0
1.922869951424218E+002	-1.1942406E-001	-1.9599615E-001	0
2.022869948898006E+002	-1.1881312E-001	-1.9598790E-001	0
2.122869946371793E+002	-1.1845037E-001	-1.9599234E-001	0
2.222869943845581E+002	-1.1789671E-001	-1.9599043E-001	0
2.322869941319368E+002	-1.1732395E-001	-1.9599107E-001	0
2.422869938793156E+002	-1.1682756E-001	-1.9598661E-001	0
2.522869936266943E+002	-1.1640754E-001	-1.9598469E-001	0
2.622869933740731E+002	-1.1596843E-001	-1.9598724E-001	0
2.722869931214518E+002	-1.1549113E-001	-1.9598979E-001	0
2.822869928688306E+002	-1.1505201E-001	-1.9598533E-001	0
2.922869926162093E+002	-1.1447926E-001	-1.9598790E-001	0
3.022869923635881E+002	-1.1405924E-001	-1.9598790E-001	0
3.122869921109668E+002	-1.1367740E-001	-1.9598342E-001	0
3.222869918583456E+002	-1.1329556E-001	-1.9598724E-001	0
3.322869916057243E+002	-1.1287554E-001	-1.9598979E-001	0
3.422869913531031E+002	-1.1245552E-001	-1.9598152E-001	0
3.522869911004818E+002	-1.1218823E-001	-1.9598852E-001	0
3.622869908478606E+002	-1.1171094E-001	-1.9598408E-001	0
3.722869905952393E+002	-1.1125273E-001	-1.9598152E-001	0
3.822869903426181E+002	-1.1104272E-001	-1.9598599E-001	0
3.922869900899968E+002	-1.1064179E-001	-1.9599107E-001	0
4.022869898373756E+002	-1.1037450E-001	-1.9598661E-001	0
4.122869895847543E+002	-1.0987812E-001	-1.9598916E-001	0
4.222869893321331E+002	-1.0964901E-001	-1.9598852E-001	0
4.322869890795118E+002	-1.0930536E-001	-1.9599043E-001	0
4.422869888268906E+002	-1.0877078E-001	-1.9598979E-001	0
4.522869885742693E+002	-1.0863714E-001	-1.9598916E-001	0
4.622869883216481E+002	-1.0825530E-001	-1.9599171E-001	0
4.722869880690268E+002	-1.0787346E-001	-1.9598979E-001	0
4.822869878164056E+002	-1.0758708E-001	-1.9598342E-001	0
4.922869875637844E+002	-1.0737707E-001	-1.9598278E-001	0
5.022869873111631E+002	-1.0710979E-001	-1.9598278E-001	0
5.122869870585419E+002	-1.0676613E-001	-1.9598790E-001	0
5.222869868059206E+002	-1.0655612E-001	-1.9598408E-001	0
5.322869865532994E+002	-1.0630793E-001	-1.9599107E-001	0
5.422869863006781E+002	-1.0607883E-001	-1.9598661E-001	0
5.522869860480569E+002	-1.0583063E-001	-1.9598661E-001	0
5.622869857954356E+002	-1.0541061E-001	-1.9598916E-001	0
5.722869855428144E+002	-1.0523878E-001	-1.9598916E-001	0
5.822869852901931E+002	-1.0500968E-001	-1.9598278E-001	0
5.922869850375719E+002	-1.0462784E-001	-1.9598278E-001	0
6.022869847849506E+002	-1.0462784E-001	-1.9598916E-001	0
6.122869845323294E+002	-1.0439874E-001	-1.9598599E-001	0
6.222869842797081E+002	-1.0413145E-001	-1.9598469E-001	0
6.322869840270869E+002	-1.0382598E-001	-1.9599107E-001	0
6.422869837744656E+002	-1.0380689E-001	-1.9598278E-001	0
6.522869835218444E+002	-1.0361597E-001	-1.9598852E-001	0
6.622869832692231E+002	-1.0329141E-001	-1.9599552E-001	0
6.722869830166019E+002	-1.0302413E-001	-1.9598027E-001	0
6.822869827639806E+002	-1.0275684E-001	-1.9598342E-001	0
6.922869825113594E+002	-1.0275684E-001	-1.9598852E-001	0
7.022869822587381E+002	-1.0250864E-001	-1.9598278E-001	0
7.122869820061169E+002	-1.0227954E-001	-1.9599043E-001	0
7.222869817534956E+002	-1.0222226E-001	-1.9598152E-001	0
7.322869815008744E+002	-1.0195497E-001	-1.9598661E-001	0
7.422869812482531E+002	-1.0191679E-001	-1.9598790E-001	0
7.522869809956319E+002	-1.0163041E-001	-1.9599298E-001	0
7.622869807430106E+002	-1.0153496E-001	-1.9598533E-001	0
7.722869804903894E+002	-1.0130585E-001	-1.9598027E-001	0
7.822869802377681E+002	-1.0105766E-001	-1.9598278E-001	0
7.922869799851469E+002	-1.0105766E-001	-1.9598408E-001	0
8.022869797325257E+002	-1.0082855E-001	-1.9598599E-001	0
8.122869794799044E+002	-1.0059945E-001	-1.9599043E-001	0
8.222869792272832E+002	-1.0046581E-001	-1.9598724E-001	0
8.322869789746619E+002	-1.0029398E-001	-1.9598790E-001	0
8.422869787220407E+002	-1.0014125E-001	-1.9598469E-001	0
8.522869784694194E+002	-9.9988513E-002	-1.9598469E-001	0
8.622869782167982E+002	-9.9912144E-002	-1.9599107E-001	0
8.722869779641769E+002	-9.9721223E-002	-1.9598724E-001	0
8.822869777115557E+002	-9.9530302E-002	-1.9599043E-001	0
8.922869774589344E+002	-9.9415757E-002	-1.9598278E-001	0
9.022869772063132E+002	-9.9167563E-002	-1.9598724E-001	0
9.122869769536919E+002	-9.9072099E-002	-1.9599234E-001	0
9.222869767010707E+002	-9.8804817E-002	-1.9598852E-001	0
9.322869764484494E+002	-9.8556615E-002	-1.9599043E-001	0
9.422869761958282E+002	-9.8652080E-002	-1.9598790E-001	0
9.522869759432069E+002	-9.8461159E-002	-1.9598661E-001	0
9.622869756905857E+002	-9.8327518E-002	-1.9598469E-001	0
9.722869754379644E+002	-9.8098412E-002	-1.9599043E-001	0
9.822869751853432E+002	-9.8079324E-002	-1.9598852E-001	0
9.922869749327219E+002	-9.7926587E-002	-1.9598408E-001	0
1.002286974680101E+003	-9.7754762E-002	-1.9598533E-001	0
1.012286974427479E+003	-9.7640209E-002	-1.9598852E-001	0
1.022286974174858E+003	-9.7544745E-002	-1.9598979E-001	0
1.032286973922237E+003	-9.7544745E-002	-1.9598724E-001	0
1.042286973669616E+003	-9.7105637E-002	-1.9598790E-001	0
1.052286973416994E+003	-9.7010173E-002	-1.9598790E-001	0
1.062286973164373E+003	-9.6914716E-002	-1.9598979E-001	0
1.072286972911752E+003	-9.6647426E-002	-1.9598278E-001	0
1.082286972659131E+003	-9.6609242E-002	-1.9599043E-001	0
1.092286972406509E+003	-9.6532881E-002	-1.9598724E-001	0
1.102286972153888E+003	-9.6437417E-002	-1.9598724E-001	0
1.112286971901267E+003	-9.6341960E-002	-1.9598790E-001	0
1.122286971648646E+003	-9.6093766E-002	-1.9598852E-001	0
1.132286971396024E+003	-9.5921934E-002	-1.9599171E-001	0
1.142286971143403E+003	-9.5826477E-002	-1.9598661E-001	0
1.152286970890782E+003	-9.5750108E-002	-1.9599234E-001	0
1.162286970638161E+003	-9.5616467E-002	-1.9598979E-001	0
1.172286970385539E+003	-9.5540099E-002	-1.9598724E-001	0
1.182286970132918E+003	-9.5349178E-002	-1.9599171E-001	0
1.192286969880297E+003	-9.5310993E-002	-1.9598217E-001	0
1.202286969627676E+003	-9.5215537E-002	-1.9598599E-001	0
1.212286969375054E+003	-9.5024616E-002	-1.9598533E-001	0
1.222286969122433E+003	-9.4986431E-002	-1.9598916E-001	0
1.232286968869812E+003	-9.4700053E-002	-1.9599298E-001	0
1.242286968617191E+003	-9.4719149E-002	-1.9598533E-001	0
1.252286968364569E+003	-9.4413675E-002	-1.9599298E-001	0
1.262286968111948E+003	-9.4413675E-002	-1.9598533E-001	0
1.272286967859327E+003	-9.4375491E-002	-1.9598979E-001	0
1.282286967606706E+003	-9.4222762E-002	-1.9597897E-001	0
1.292286967354084E+003	-9.4108209E-002	-1.9598724E-001	0
1.302286967101463E+003	-9.4012745E-002	-1.9598599E-001	0
1.312286966848842E+003	-9.3974560E-002	-1.9598724E-001	0
1.322286966596221E+003	-9.3802735E-002	-1.9598342E-001	0
1.332286966343599E+003	-9.3688183E-002	-1.9598790E-001	0
1.342286966090978E+003	-9.3478173E-002	-1.9598599E-001	0
1.352286965838357E+003	-9.3287252E-002	-1.9599043E-001	0
1.362286965585736E+003	-9.3229979E-002	-1.9598661E-001	0
1.372286965333114E+003	-9.3096338E-002	-1.9598790E-001	0
1.382286965080493E+003	-9.3039058E-002	-1.9598278E-001	0
1.392286964827872E+003	-9.2943601E-002	-1.9599107E-001	0
1.402286964575251E+003	-9.2848144E-002	-1.9598599E-001	0
1.412286964322630E+003	-9.2771776E-002	-1.9598469E-001	0
1.422286964070008E+003	-9.2580855E-002	-1.9598661E-001	0
1.432286963817387E+003	-9.2523582E-002	-1.9598790E-001	0
1.442286963564766E+003	-9.2389934E-002	-1.9598852E-001	0
1.452286963312145E+003	-9.2275389E-002	-1.9598408E-001	0
1.462286963059523E+003	-9.2275389E-002	-1.9598790E-001	0
1.472286962806902E+003	-9.2084467E-002	-1.9598469E-001	0
1.482286962554281E+003	-9.1989003E-002	-1.9598661E-001	0
1.492286962301660E+003	-9.1989003E-002	-1.9598916E-001	0
1.502286962049038E+003	-9.1778994E-002	-1.9598852E-001	0
1.512286961796417E+003	-9.1702625E-002	-1.9598408E-001	0
1.522286961543796E+003	-9.1626257E-002	-1.9598852E-001	0
1.532286961291175E+003	-9.1626257E-002	-1.9598599E-001	0
1.542286961038553E+003	-9.1473527E-002	-1.9598790E-001	0
1.552286960785932E+003	-9.1358975E-002	-1.9598533E-001	0
1.562286960533311E+003	-9.1282606E-002	-1.9598599E-001	0
1.572286960280690E+003	-9.1072597E-002	-1.9598533E-001	0
1.582286960028068E+003	-9.1053501E-002	-1.9598408E-001	0
1.592286959775447E+003	-9.0977132E-002	-1.9598533E-001	0
1.602286959522826E+003	-9.0786219E-002	-1.9598217E-001	0
1.612286959270205E+003	-9.0728939E-002	-1.9599298E-001	0
1.622286959017583E+003	-9.0595298E-002	-1.9598152E-001	0
1.632286958764962E+003	-9.0595298E-002	-1.9598599E-001	0
1.642286958512341E+003	-9.0557113E-002	-1.9599107E-001	0
1.652286958259720E+003	-9.0328008E-002	-1.9598724E-001	0
1.662286958007098E+003	-9.0347104E-002	-1.9598661E-001	0
1.672286957754477E+003	-9.0156183E-002	-1.9598724E-001	0
1.682286957501856E+003	-9.0060726E-002	-1.9599171E-001	0
1.692286957249235E+003	-9.0003446E-002	-1.9599043E-001	0
1.702286956996613E+003	-8.9850716E-002	-1.9599107E-001	0
1.712286956743992E+003	-8.9793436E-002	-1.9598661E-001	0
1.722286956491371E+003	-8.9621611E-002	-1.9598408E-001	0
1.732286956238750E+003	-8.9583427E-002	-1.9598661E-001	0
1.742286955986128E+003	-8.9526154E-002	-1.9598790E-001	0
1.752286955733507E+003	-8.9507058E-002	-1.9598408E-001	0
1.762286955480886E+003	-8.9411601E-002	-1.9599043E-001	0
1.772286955228265E+003	-8.9182496E-002	-1.9598599E-001	0
1.782286954975643E+003	-8.9239776E-002	-1.9598916E-001	0
1.792286954723022E+003	-8.9144312E-002	-1.9598661E-001	0
1.802286954470401E+003	-8.9067943E-002	-1.9598088E-001	0
1.812286954217780E+003	-8.8915214E-002	-1.9599362E-001	0
1.822286953965158E+003	-8.8838845E-002	-1.9598661E-001	0
1.832286953712537E+003	-8.8743381E-002	-1.9598724E-001	0
1.842286953459916E+003	-8.8647924E-002	-1.9598088E-001	0
1.852286953207295E+003	-8.8514283E-002	-1.9599107E-001	0
1.862286952954673E+003	-8.8552468E-002	-1.9598599E-001	0
1.872205752704103E+003	-8.8342451E-002	-1.9598342E-001	0