time/s	Ewe/V	I/mA	error	
4.519267885833542E+002	-4.7159269E-002	-1.9443122E+000	0
4.519269885833492E+002	-8.0034614E-002	-1.9594816E+000	0
4.519271885833441E+002	-8.9113481E-002	-1.9595071E+000	0
4.519273885833391E+002	-9.4019182E-002	-1.9596152E+000	0
4.519275885833340E+002	-9.7894102E-002	-1.9596088E+000	0
4.519277885833289E+002	-1.0153997E-001	-1.9596471E+000	0
4.519279885833239E+002	-1.0476590E-001	-1.9596217E+000	0
4.519281885833188E+002	-1.0759097E-001	-1.9596280E+000	0
4.519283885833138E+002	-1.1053057E-001	-1.9596280E+000	0
4.519285885833087E+002	-1.1331746E-001	-1.9596088E+000	0
4.519287885833037E+002	-1.1610435E-001	-1.9596916E+000	0
4.519289885832986E+002	-1.1845221E-001	-1.9595897E+000	0
4.519291885832936E+002	-1.2102914E-001	-1.9596407E+000	0
4.519293885832885E+002	-1.2330064E-001	-1.9596088E+000	0
4.519295885832835E+002	-1.2572485E-001	-1.9595835E+000	0
4.519297885832784E+002	-1.2805364E-001	-1.9596343E+000	0
4.519299885832734E+002	-1.3049693E-001	-1.9595771E+000	0
4.519301885832683E+002	-1.3259664E-001	-1.9596661E+000	0
4.519303885832633E+002	-1.3490634E-001	-1.9596280E+000	0
4.519305885832582E+002	-1.3702513E-001	-1.9596726E+000	0
4.519307885832532E+002	-1.3901033E-001	-1.9596981E+000	0
4.519309885832481E+002	-1.4120547E-001	-1.9596471E+000	0
4.519311885832431E+002	-1.4320976E-001	-1.9596152E+000	0
4.519313885832380E+002	-1.4523311E-001	-1.9596407E+000	0
4.519315885832330E+002	-1.4733282E-001	-1.9596598E+000	0
4.519317885832279E+002	-1.4910804E-001	-1.9596852E+000	0
4.519319885832228E+002	-1.5113139E-001	-1.9596726E+000	0
4.519321885832178E+002	-1.5304023E-001	-1.9596661E+000	0
4.519323885832127E+002	-1.5485361E-001	-1.9596661E+000	0
4.519325885832077E+002	-1.5676245E-001	-1.9596343E+000	0
4.519327885832026E+002	-1.5838495E-001	-1.9596852E+000	0
4.519329885831976E+002	-1.6023652E-001	-1.9596535E+000	0
4.519331885831925E+002	-1.6203082E-001	-1.9596726E+000	0
4.519333885831875E+002	-1.6384421E-001	-1.9596790E+000	0
4.519335885831824E+002	-1.6558124E-001	-1.9596598E+000	0
4.519337885831774E+002	-1.6728011E-001	-1.9596790E+000	0
4.519339885831723E+002	-1.6899805E-001	-1.9595835E+000	0
4.519341885831673E+002	-1.7062056E-001	-1.9596343E+000	0
4.519343885831622E+002	-1.7241485E-001	-1.9596217E+000	0
4.519345885831572E+002	-1.7399919E-001	-1.9596661E+000	0
4.519347885831521E+002	-1.7556444E-001	-1.9597107E+000	0
4.519349885831471E+002	-1.7709149E-001	-1.9596535E+000	0
4.519351885831420E+002	-1.7873310E-001	-1.9596407E+000	0
4.519353885831370E+002	-1.8027924E-001	-1.9596407E+000	0
4.519355885831319E+002	-1.8172996E-001	-1.9596598E+000	0
4.519357885831269E+002	-1.8329519E-001	-1.9596916E+000	0
4.519359885831218E+002	-1.8468864E-001	-1.9596981E+000	0
4.519361885831167E+002	-1.8625389E-001	-1.9596535E+000	0
4.519363885831117E+002	-1.8770459E-001	-1.9596088E+000	0
4.519365885831066E+002	-1.8923166E-001	-1.9596790E+000	0
4.519367885831016E+002	-1.9058692E-001	-1.9597107E+000	0
4.519369885830965E+002	-1.9211400E-001	-1.9596981E+000	0
4.519371885830915E+002	-1.9348836E-001	-1.9596343E+000	0
4.519373885830864E+002	-1.9495815E-001	-1.9596790E+000	0
4.519375885830814E+002	-1.9619890E-001	-1.9596217E+000	0
4.519377885830763E+002	-1.9759235E-001	-1.9596598E+000	0
4.519379885830713E+002	-1.9900487E-001	-1.9596726E+000	0
4.519381885830662E+002	-2.0041741E-001	-1.9596726E+000	0
4.519383885830612E+002	-2.0169632E-001	-1.9596598E+000	0
4.519385885830561E+002	-2.0295615E-001	-1.9596407E+000	0
4.519387885830511E+002	-2.0425417E-001	-1.9596471E+000	0
4.519389885830460E+002	-2.0559034E-001	-1.9596471E+000	0
4.519391885830410E+002	-2.0683108E-001	-1.9596026E+000	0
4.519393885830359E+002	-2.0799547E-001	-1.9596981E+000	0
4.519395885830309E+002	-2.0927438E-001	-1.9596343E+000	0
4.519397885830258E+002	-2.1059148E-001	-1.9596598E+000	0
4.519399885830208E+002	-2.1167952E-001	-1.9596598E+000	0
4.519401885830157E+002	-2.1307296E-001	-1.9596852E+000	0
4.519403885830106E+002	-2.1427552E-001	-1.9596916E+000	0
4.519405885830056E+002	-2.1534447E-001	-1.9596916E+000	0
4.519407885830005E+002	-2.1656612E-001	-1.9596790E+000	0
4.519409885829955E+002	-2.1767324E-001	-1.9596152E+000	0
4.519411885829904E+002	-2.1883763E-001	-1.9596535E+000	0
4.519413885829854E+002	-2.2005928E-001	-1.9596407E+000	0
4.519415885829803E+002	-2.2116640E-001	-1.9596661E+000	0
4.519417885829753E+002	-2.2227353E-001	-1.9596535E+000	0
4.519419885829702E+002	-2.2334246E-001	-1.9596916E+000	0
4.519421885829652E+002	-2.2441141E-001	-1.9596217E+000	0
4.519423885829601E+002	-2.2561398E-001	-1.9596280E+000	0
4.519425885829551E+002	-2.2668293E-001	-1.9595835E+000	0
4.519427885829500E+002	-2.2775187E-001	-1.9596726E+000	0
4.519431885829399E+002	-2.3000430E-001	-1.9596280E+000	0
4.519435885829298E+002	-2.3208492E-001	-1.9596726E+000	0
4.519439885829197E+002	-2.3401284E-001	-1.9596661E+000	0
4.519443885829096E+002	-2.3588349E-001	-1.9596535E+000	0
4.519445885829045E+002	-2.3697153E-001	-1.9596852E+000	0
4.519449885828944E+002	-2.3899488E-001	-1.9596726E+000	0
4.519453885828843E+002	-2.4084646E-001	-1.9596661E+000	0
4.519455885828793E+002	-2.4185812E-001	-1.9596852E+000	0
4.519459885828692E+002	-2.4369061E-001	-1.9596726E+000	0
4.519463885828591E+002	-2.4559943E-001	-1.9596598E+000	0
4.519467885828490E+002	-2.4743192E-001	-1.9596661E+000	0
4.519471885828389E+002	-2.4909259E-001	-1.9596852E+000	0
4.519473885828338E+002	-2.5010428E-001	-1.9596598E+000	0
4.519477885828237E+002	-2.5184131E-001	-1.9596343E+000	0
4.519481885828136E+002	-2.5346380E-001	-1.9596726E+000	0
4.519485885828035E+002	-2.5512451E-001	-1.9596026E+000	0
4.519489885827934E+002	-2.5682336E-001	-1.9596407E+000	0
4.519493885827833E+002	-2.5840768E-001	-1.9596790E+000	0
4.519497885827732E+002	-2.6012564E-001	-1.9596916E+000	0
4.519501885827631E+002	-2.6159543E-001	-1.9596471E+000	0
4.519505885827530E+002	-2.6319885E-001	-1.9596726E+000	0
4.519509885827429E+002	-2.6470682E-001	-1.9596790E+000	0
4.519513885827328E+002	-2.6632935E-001	-1.9596790E+000	0
4.519517885827227E+002	-2.6778004E-001	-1.9596790E+000	0
4.519521885827126E+002	-2.6915440E-001	-1.9597553E+000	0
4.519525885827024E+002	-2.7068147E-001	-1.9596790E+000	0
4.519529885826923E+002	-2.7207491E-001	-1.9596726E+000	0
4.519533885826822E+002	-2.7346838E-001	-1.9596535E+000	0
4.519537885826721E+002	-2.7467093E-001	-1.9596407E+000	0
4.519541885826620E+002	-2.7615982E-001	-1.9596726E+000	0
4.519545885826519E+002	-2.7753419E-001	-1.9596152E+000	0
4.519549885826418E+002	-2.7877492E-001	-1.9596790E+000	0
4.519553885826317E+002	-2.8009200E-001	-1.9596726E+000	0
4.519557885826216E+002	-2.8129458E-001	-1.9597043E+000	0
4.519561885826115E+002	-2.8251621E-001	-1.9596981E+000	0
4.519565885826014E+002	-2.8390968E-001	-1.9596981E+000	0
4.519569885825913E+002	-2.8505498E-001	-1.9596535E+000	0
4.519573885825812E+002	-2.8616208E-001	-1.9596916E+000	0
4.519577885825711E+002	-2.8742191E-001	-1.9596726E+000	0
4.519581885825610E+002	-2.8856722E-001	-1.9597298E+000	0
4.519585885825509E+002	-2.8980795E-001	-1.9597043E+000	0
4.519589885825408E+002	-2.9087690E-001	-1.9596981E+000	0
4.519593885825307E+002	-2.9192677E-001	-1.9596790E+000	0
4.519597885825206E+002	-2.9297662E-001	-1.9596598E+000	0
4.519601885825105E+002	-2.9404557E-001	-1.9596661E+000	0
4.519605885825004E+002	-2.9511452E-001	-1.9596217E+000	0
4.519609885824902E+002	-2.9631707E-001	-1.9596790E+000	0
4.519615885824751E+002	-2.9778686E-001	-1.9596598E+000	0
4.519621885824599E+002	-2.9918033E-001	-1.9596916E+000	0
4.519625885824498E+002	-3.0021107E-001	-1.9596916E+000	0
4.519631885824347E+002	-3.0150908E-001	-1.9596790E+000	0
4.519635885824246E+002	-3.0261621E-001	-1.9596726E+000	0
4.519641885824094E+002	-3.0395240E-001	-1.9596981E+000	0
4.519645885823993E+002	-3.0496407E-001	-1.9596790E+000	0
4.519651885823841E+002	-3.0624300E-001	-1.9596471E+000	0
4.519657885823690E+002	-3.0750281E-001	-1.9596598E+000	0
4.519663885823538E+002	-3.0887717E-001	-1.9596981E+000	0
4.519669885823387E+002	-3.1011793E-001	-1.9596852E+000	0
4.519675885823235E+002	-3.1137773E-001	-1.9596661E+000	0
4.519681885823084E+002	-3.1254214E-001	-1.9597107E+000	0
4.519687885822932E+002	-3.1382105E-001	-1.9596726E+000	0
4.519693885822780E+002	-3.1487089E-001	-1.9596598E+000	0
4.519699885822629E+002	-3.1605437E-001	-1.9597043E+000	0
4.519705885822477E+002	-3.1719968E-001	-1.9596088E+000	0
4.519711885822326E+002	-3.1823045E-001	-1.9597362E+000	0
4.519717885822174E+002	-3.1924212E-001	-1.9596852E+000	0
4.519723885822023E+002	-3.2031107E-001	-1.9597043E+000	0
4.519729885821871E+002	-3.2132277E-001	-1.9596790E+000	0
4.519737885821669E+002	-3.2258257E-001	-1.9596535E+000	0
4.519743885821517E+002	-3.2359427E-001	-1.9596852E+000	0
4.519751885821315E+002	-3.2489228E-001	-1.9596471E+000	0
4.519757885821164E+002	-3.2592303E-001	-1.9596598E+000	0
4.519765885820962E+002	-3.2706833E-001	-1.9596661E+000	0
4.519773885820759E+002	-3.2821363E-001	-1.9596598E+000	0
4.519781885820557E+002	-3.2932076E-001	-1.9597489E+000	0
4.519789885820355E+002	-3.3040878E-001	-1.9596981E+000	0
4.519797885820153E+002	-3.3155409E-001	-1.9596790E+000	0
4.519805885819951E+002	-3.3260393E-001	-1.9597489E+000	0
4.519813885819749E+002	-3.3361563E-001	-1.9596407E+000	0
4.519821885819547E+002	-3.3464640E-001	-1.9597107E+000	0
4.519831885819294E+002	-3.3565807E-001	-1.9596535E+000	0
4.519841885819042E+002	-3.3686063E-001	-1.9596407E+000	0
4.519849885818840E+002	-3.3794868E-001	-1.9596026E+000	0
4.519861885818536E+002	-3.3913216E-001	-1.9596471E+000	0
4.519871885818284E+002	-3.4018201E-001	-1.9596852E+000	0
4.519881885818031E+002	-3.4130821E-001	-1.9596598E+000	0
4.519893885817728E+002	-3.4239626E-001	-1.9597107E+000	0
4.519907885817374E+002	-3.4357971E-001	-1.9596598E+000	0
4.519919885817071E+002	-3.4464866E-001	-1.9596598E+000	0
4.519933885816718E+002	-3.4585124E-001	-1.9595962E+000	0
4.519947885816364E+002	-3.4692019E-001	-1.9596726E+000	0
4.519961885816010E+002	-3.4802729E-001	-1.9596471E+000	0
4.519975885815657E+002	-3.4903899E-001	-1.9596661E+000	0
4.519991885815252E+002	-3.5012701E-001	-1.9596981E+000	0
4.520007885814848E+002	-3.5113868E-001	-1.9596852E+000	0
4.520025885814393E+002	-3.5230309E-001	-1.9597043E+000	0
4.520045885813888E+002	-3.5339111E-001	-1.9596280E+000	0
4.520067885813332E+002	-3.5447913E-001	-1.9596598E+000	0
4.520087885812827E+002	-3.5550991E-001	-1.9596790E+000	0
4.520109885812271E+002	-3.5661703E-001	-1.9596726E+000	0
4.520135885811615E+002	-3.5762873E-001	-1.9597234E+000	0
4.520161885810958E+002	-3.5869765E-001	-1.9596343E+000	0
4.520189885810250E+002	-3.5972843E-001	-1.9596852E+000	0
4.520219885809493E+002	-3.6075920E-001	-1.9596407E+000	0
4.520251885808684E+002	-3.6186633E-001	-1.9597234E+000	0
4.520291885807674E+002	-3.6303070E-001	-1.9596280E+000	0
4.520329885806714E+002	-3.6406147E-001	-1.9596790E+000	0
4.520371885805653E+002	-3.6507317E-001	-1.9596852E+000	0
4.520417885804491E+002	-3.6610392E-001	-1.9596981E+000	0
4.520471885803127E+002	-3.6713469E-001	-1.9596661E+000	0
4.520533885801560E+002	-3.6822274E-001	-1.9596661E+000	0
4.520607885799691E+002	-3.6932984E-001	-1.9596535E+000	0
4.520687885797670E+002	-3.7037972E-001	-1.9597043E+000	0
4.520785885795194E+002	-3.7144867E-001	-1.9597298E+000	0
4.520905885792163E+002	-3.7249851E-001	-1.9596790E+000	0
4.521057885788323E+002	-3.7352929E-001	-1.9596661E+000	0
4.521243885783624E+002	-3.7456006E-001	-1.9597362E+000	0
4.521423885779077E+002	-3.7559083E-001	-1.9596726E+000	0
4.521609885774378E+002	-3.7660250E-001	-1.9596981E+000	0
4.521777885770134E+002	-3.7761417E-001	-1.9596790E+000	0
4.521955885765638E+002	-3.7864494E-001	-1.9596407E+000	0
4.522127885761292E+002	-3.7965661E-001	-1.9596852E+000	0
4.522305885756796E+002	-3.8068739E-001	-1.9596471E+000	0
4.522469885752653E+002	-3.8171816E-001	-1.9597043E+000	0
4.522651885748055E+002	-3.8276803E-001	-1.9597043E+000	0
4.522823885743710E+002	-3.8385606E-001	-1.9596790E+000	0
4.523021885738708E+002	-3.8488683E-001	-1.9596916E+000	0
4.523201885734161E+002	-3.8589850E-001	-1.9596916E+000	0
4.523381885729614E+002	-3.8691020E-001	-1.9596790E+000	0
4.523573885724763E+002	-3.8801730E-001	-1.9596471E+000	0
4.523799885719054E+002	-3.8904807E-001	-1.9597107E+000	0
4.523989885714254E+002	-3.9013612E-001	-1.9596916E+000	0
4.524217885708495E+002	-3.9116687E-001	-1.9597298E+000	0
4.524423885703291E+002	-3.9217857E-001	-1.9597107E+000	0
4.524667885697127E+002	-3.9320934E-001	-1.9596535E+000	0
4.524905885691114E+002	-3.9427826E-001	-1.9596916E+000	0
4.525173885684344E+002	-3.9538538E-001	-1.9596916E+000	0
4.525431885677826E+002	-3.9645433E-001	-1.9596981E+000	0
4.525711885670753E+002	-3.9750421E-001	-1.9597298E+000	0
4.525993885663629E+002	-3.9851588E-001	-1.9596981E+000	0
4.526279885656404E+002	-3.9952755E-001	-1.9596661E+000	0
4.526571885649028E+002	-4.0053925E-001	-1.9596852E+000	0
4.526889885640994E+002	-4.0156999E-001	-1.9597107E+000	0
4.527231885632355E+002	-4.0260077E-001	-1.9596726E+000	0
4.527573885623715E+002	-4.0363154E-001	-1.9596852E+000	0
4.527963885613863E+002	-4.0464324E-001	-1.9597553E+000	0
4.528351885604061E+002	-4.0571216E-001	-1.9596916E+000	0
4.528749885594007E+002	-4.0676203E-001	-1.9596471E+000	0
4.529213885582285E+002	-4.0777370E-001	-1.9596726E+000	0
4.529659885571018E+002	-4.0878537E-001	-1.9596726E+000	0
4.530143885558791E+002	-4.0979707E-001	-1.9596535E+000	0
4.530641885546211E+002	-4.1086602E-001	-1.9596916E+000	0
4.531231885531306E+002	-4.1193497E-001	-1.9596471E+000	0
4.531821885516401E+002	-4.1296571E-001	-1.9596916E+000	0
4.532423885501194E+002	-4.1397741E-001	-1.9597172E+000	0
4.533059885485127E+002	-4.1498908E-001	-1.9596790E+000	0
4.533695885469060E+002	-4.1600078E-001	-1.9597172E+000	0
4.534443885450164E+002	-4.1703153E-001	-1.9596471E+000	0
4.535117885433137E+002	-4.1804323E-001	-1.9596852E+000	0
4.535931885412574E+002	-4.1905490E-001	-1.9596981E+000	0
4.536735885392263E+002	-4.2008567E-001	-1.9596661E+000	0
4.537529885372205E+002	-4.2109734E-001	-1.9596916E+000	0
4.538433885349368E+002	-4.2214721E-001	-1.9596852E+000	0
4.539341885326430E+002	-4.2315888E-001	-1.9596852E+000	0
4.540217885304301E+002	-4.2420873E-001	-1.9596661E+000	0
4.541191885279695E+002	-4.2522043E-001	-1.9596916E+000	0
4.542201885254181E+002	-4.2625120E-001	-1.9596981E+000	0
4.543197885229019E+002	-4.2726287E-001	-1.9596535E+000	0
4.544185885204060E+002	-4.2827454E-001	-1.9596981E+000	0
4.545165885179304E+002	-4.2928624E-001	-1.9597362E+000	0
4.546301885150606E+002	-4.3031701E-001	-1.9596981E+000	0
4.547371885123575E+002	-4.3138593E-001	-1.9596407E+000	0
4.548503885094979E+002	-4.3239763E-001	-1.9597616E+000	0
4.549657885065826E+002	-4.3342841E-001	-1.9596852E+000	0
4.550789885037229E+002	-4.3444008E-001	-1.9596598E+000	0
4.551901885009138E+002	-4.3548992E-001	-1.9597043E+000	0
4.553079884979379E+002	-4.3650162E-001	-1.9596471E+000	0
4.554317884948105E+002	-4.3753240E-001	-1.9597107E+000	0
4.555511884917942E+002	-4.3856314E-001	-1.9597234E+000	0
4.556727884887223E+002	-4.3957484E-001	-1.9596790E+000	0
4.558015884854685E+002	-4.4060561E-001	-1.9596916E+000	0
4.559317884821794E+002	-4.4169363E-001	-1.9597425E+000	0
4.560683884787286E+002	-4.4270530E-001	-1.9596916E+000	0
4.561959884755051E+002	-4.4371700E-001	-1.9597172E+000	0
4.563259884722211E+002	-4.4472867E-001	-1.9596726E+000	0
4.564547884689673E+002	-4.4574034E-001	-1.9596217E+000	0
4.565889884655771E+002	-4.4682840E-001	-1.9596471E+000	0
4.567331884619343E+002	-4.4784006E-001	-1.9596981E+000	0
4.568825884581602E+002	-4.4887084E-001	-1.9596471E+000	0
4.570219884546386E+002	-4.4992068E-001	-1.9596916E+000	0
4.571697884509049E+002	-4.5093238E-001	-1.9597234E+000	0
4.573161884472065E+002	-4.5194405E-001	-1.9597234E+000	0
4.574647884434526E+002	-4.5297483E-001	-1.9597234E+000	0
4.576163884396228E+002	-4.5398650E-001	-1.9596981E+000	0
4.577623884359346E+002	-4.5499820E-001	-1.9597107E+000	0
4.579177884320088E+002	-4.5600986E-001	-1.9596280E+000	0
4.580677884282195E+002	-4.5702153E-001	-1.9597043E+000	0
4.582317884240765E+002	-4.5805231E-001	-1.9596916E+000	0
4.583899884200800E+002	-4.5906401E-001	-1.9596790E+000	0
4.585469884161139E+002	-4.6009475E-001	-1.9596598E+000	0
4.587289884115162E+002	-4.6110645E-001	-1.9597553E+000	0
4.588967884072772E+002	-4.6215630E-001	-1.9597553E+000	0
4.590877884024521E+002	-4.6316800E-001	-1.9596790E+000	0
4.592803883975866E+002	-4.6417966E-001	-1.9597043E+000	0
4.594601883930445E+002	-4.6519133E-001	-1.9597553E+000	0
4.596441883883963E+002	-4.6643209E-001	-1.9597234E+000	0
4.598505883831822E+002	-4.6748194E-001	-1.9596852E+000	0
4.600421883783420E+002	-4.6849361E-001	-1.9597234E+000	0
4.602227883737796E+002	-4.6950531E-001	-1.9596852E+000	0
4.604137883689546E+002	-4.7051698E-001	-1.9597043E+000	0
4.606127883639274E+002	-4.7152865E-001	-1.9596790E+000	0
4.608057883590518E+002	-4.7259760E-001	-1.9597489E+000	0
4.609943883542874E+002	-4.7360930E-001	-1.9596661E+000	0
4.612187883486185E+002	-4.7462097E-001	-1.9596280E+000	0
4.614279883433337E+002	-4.7563264E-001	-1.9597107E+000	0
4.616327883381600E+002	-4.7664434E-001	-1.9596916E+000	0
4.618505883326579E+002	-4.7765601E-001	-1.9596916E+000	0
4.620691883271356E+002	-4.7866768E-001	-1.9597362E+000	0
4.622897883215628E+002	-4.7973663E-001	-1.9597043E+000	0
4.625247883156262E+002	-4.8074833E-001	-1.9596598E+000	0
4.627601883096795E+002	-4.8177907E-001	-1.9596981E+000	0
4.629951883037429E+002	-4.8279077E-001	-1.9597362E+000	0
4.632351882976800E+002	-4.8384061E-001	-1.9597298E+000	0
4.634819882914453E+002	-4.8487139E-001	-1.9597043E+000	0
4.637277882852359E+002	-4.8588306E-001	-1.9596852E+000	0
4.639575882794306E+002	-4.8689476E-001	-1.9596916E+000	0
4.642483882720844E+002	-4.8796371E-001	-1.9597489E+000	0
4.645225882651575E+002	-4.8897538E-001	-1.9597234E+000	0
4.648143882577861E+002	-4.8998705E-001	-1.9597107E+000	0
4.651149882501923E+002	-4.9099874E-001	-1.9597043E+000	0
4.654259882423357E+002	-4.9202952E-001	-1.9596598E+000	0
4.657577882339538E+002	-4.9304119E-001	-1.9597172E+000	0
4.660651882261882E+002	-4.9407196E-001	-1.9596598E+000	0
4.664087882175081E+002	-4.9512181E-001	-1.9597298E+000	0
4.667663882084744E+002	-4.9613348E-001	-1.9597043E+000	0
4.671881881978188E+002	-4.9716425E-001	-1.9596981E+000	0
4.676849881852686E+002	-4.9823320E-001	-1.9597172E+000	0
4.681641881731630E+002	-4.9924490E-001	-1.9597234E+000	0
4.686117881618557E+002	-5.0027561E-001	-1.9596981E+000	0
4.691025881494570E+002	-5.0128734E-001	-1.9597298E+000	0
4.697007881343452E+002	-5.0229901E-001	-1.9596981E+000	0
4.704161881162727E+002	-5.0332975E-001	-1.9596598E+000	0
4.713103880936833E+002	-5.0436056E-001	-1.9597362E+000	0
4.725357880627271E+002	-5.0537223E-001	-1.9596726E+000	0
4.765509879612946E+002	-5.0434142E-001	-1.9597362E+000	0
4.777101879320107E+002	-5.0329161E-001	-1.9597489E+000	0
4.786581879080622E+002	-5.0227994E-001	-1.9597298E+000	0
4.793989878893481E+002	-5.0126821E-001	-1.9597425E+000	0
4.800517878728569E+002	-5.0023746E-001	-1.9596981E+000	0
4.806551878576138E+002	-4.9922580E-001	-1.9596916E+000	0
4.812529878425121E+002	-4.9821413E-001	-1.9597362E+000	0
4.817943878288352E+002	-4.9720243E-001	-1.9597043E+000	0
4.822719878167700E+002	-4.9615258E-001	-1.9597043E+000	0
4.827633878043562E+002	-4.9514091E-001	-1.9598128E+000	0
4.832417877922708E+002	-4.9407196E-001	-1.9597681E+000	0
4.837039877805946E+002	-4.9302208E-001	-1.9596916E+000	0
4.841369877696561E+002	-4.9199134E-001	-1.9596790E+000	0
4.845789877584903E+002	-4.9096057E-001	-1.9596852E+000	0
4.849721877485572E+002	-4.8991069E-001	-1.9596726E+000	0
4.853655877386191E+002	-4.8889902E-001	-1.9597362E+000	0
4.857309877293883E+002	-4.8786825E-001	-1.9597362E+000	0
4.860989877200918E+002	-4.8674205E-001	-1.9597107E+000	0
4.864881877102598E+002	-4.8573035E-001	-1.9597362E+000	0
4.868679877006653E+002	-4.8460415E-001	-1.9597043E+000	0
4.872805876902421E+002	-4.8355430E-001	-1.9597172E+000	0
4.876591876806779E+002	-4.8252353E-001	-1.9597298E+000	0
4.880213876715279E+002	-4.8151183E-001	-1.9596852E+000	0
4.883725876626559E+002	-4.8048109E-001	-1.9596916E+000	0
4.887233876537939E+002	-4.7946939E-001	-1.9597172E+000	0
4.890397876458010E+002	-4.7845772E-001	-1.9597172E+000	0
4.893909876369289E+002	-4.7740787E-001	-1.9597234E+000	0
4.897211876285874E+002	-4.7639617E-001	-1.9597553E+000	0
4.900869876193465E+002	-4.7536540E-001	-1.9597553E+000	0
4.904211876109039E+002	-4.7435373E-001	-1.9597362E+000	0
4.907361876029463E+002	-4.7332296E-001	-1.9596981E+000	0
4.910777875943168E+002	-4.7229218E-001	-1.9596916E+000	0
4.914115875858843E+002	-4.7128052E-001	-1.9596916E+000	0
4.917421875775326E+002	-4.7026885E-001	-1.9597107E+000	0
4.920453875698731E+002	-4.6925715E-001	-1.9597172E+000	0
4.924001875609101E+002	-4.6824548E-001	-1.9597362E+000	0
4.926957875534426E+002	-4.6723378E-001	-1.9597107E+000	0
4.930237875451567E+002	-4.6620303E-001	-1.9596661E+000	0
4.933349875372951E+002	-4.6517226E-001	-1.9597172E+000	0
4.936487875293678E+002	-4.6414149E-001	-1.9597489E+000	0
4.939695875212637E+002	-4.6307254E-001	-1.9596726E+000	0
4.943009875128919E+002	-4.6198452E-001	-1.9596916E+000	0
4.946363875044190E+002	-4.6097282E-001	-1.9597172E+000	0
4.949497874965018E+002	-4.5994204E-001	-1.9596790E+000	0
4.952629874885897E+002	-4.5891130E-001	-1.9597107E+000	0
4.956035874799854E+002	-4.5784235E-001	-1.9596916E+000	0
4.959267874718207E+002	-4.5681158E-001	-1.9597172E+000	0
4.962425874638429E+002	-4.5578080E-001	-1.9597172E+000	0
4.965529874560016E+002	-4.5476913E-001	-1.9597362E+000	0
4.968509874484735E+002	-4.5371926E-001	-1.9597616E+000	0
4.971527874408494E+002	-4.5268849E-001	-1.9596598E+000	0
4.974819874325331E+002	-4.5167682E-001	-1.9597616E+000	0
4.977927874246816E+002	-4.5064604E-001	-1.9597298E+000	0
4.981015874168806E+002	-4.4963437E-001	-1.9596471E+000	0
4.984287874086149E+002	-4.4860360E-001	-1.9597172E+000	0
4.987553874003643E+002	-4.4751558E-001	-1.9597234E+000	0
4.990939873918105E+002	-4.4650388E-001	-1.9597234E+000	0
4.994043873839692E+002	-4.4541585E-001	-1.9596726E+000	0
4.997485873752739E+002	-4.4440418E-001	-1.9597234E+000	0
5.000763873669930E+002	-4.4337341E-001	-1.9597616E+000	0
5.003853873591870E+002	-4.4236171E-001	-1.9597425E+000	0
5.007111873509566E+002	-4.4135004E-001	-1.9596916E+000	0
5.010437873425544E+002	-4.4033837E-001	-1.9596981E+000	0
5.013535873347282E+002	-4.3930760E-001	-1.9597298E+000	0
5.016805873264675E+002	-4.3829590E-001	-1.9596471E+000	0
5.019967873184796E+002	-4.3726516E-001	-1.9596471E+000	0
5.023375873098703E+002	-4.3619621E-001	-1.9597043E+000	0
5.026857873010740E+002	-4.3518451E-001	-1.9597553E+000	0
5.030041872930306E+002	-4.3413466E-001	-1.9597553E+000	0
5.033539872841939E+002	-4.3310389E-001	-1.9597362E+000	0
5.036847872758372E+002	-4.3207312E-001	-1.9597489E+000	0
5.040353872669803E+002	-4.3100417E-001	-1.9597298E+000	0
5.043779872583254E+002	-4.2997342E-001	-1.9597425E+000	0
5.046933872503578E+002	-4.2892355E-001	-1.9596981E+000	0
5.050209872420819E+002	-4.2789277E-001	-1.9596790E+000	0
5.053643872334069E+002	-4.2684293E-001	-1.9596852E+000	0
5.057171872244944E+002	-4.2581216E-001	-1.9597234E+000	0
5.060543872159760E+002	-4.2480049E-001	-1.9597234E+000	0
5.063717872079578E+002	-4.2378879E-001	-1.9597107E+000	0
5.067363871987473E+002	-4.2277712E-001	-1.9597107E+000	0
5.070595871905825E+002	-4.2176545E-001	-1.9596981E+000	0
5.074043871818722E+002	-4.2069650E-001	-1.9596852E+000	0
5.077555871730001E+002	-4.1968480E-001	-1.9596152E+000	0
5.081257871636481E+002	-4.1867313E-001	-1.9597489E+000	0
5.084761871547962E+002	-4.1764235E-001	-1.9596598E+000	0
5.088175871461717E+002	-4.1663069E-001	-1.9597425E+000	0
5.091585871375573E+002	-4.1559991E-001	-1.9597298E+000	0
5.095465871277556E+002	-4.1458824E-001	-1.9596535E+000	0
5.098793871193484E+002	-4.1353837E-001	-1.9596916E+000	0
5.102753871093446E+002	-4.1252670E-001	-1.9597298E+000	0
5.106317871003412E+002	-4.1149592E-001	-1.9597425E+000	0
5.110007870910194E+002	-4.1048425E-001	-1.9597681E+000	0
5.113765870815259E+002	-4.0945348E-001	-1.9597043E+000	0
5.117611870718101E+002	-4.0842271E-001	-1.9597172E+000	0
5.121171870628168E+002	-4.0741104E-001	-1.9597234E+000	0
5.124915870533587E+002	-4.0638027E-001	-1.9597425E+000	0
5.128693870438146E+002	-4.0527314E-001	-1.9597489E+000	0
5.132981870329822E+002	-4.0424237E-001	-1.9597681E+000	0
5.136899870230845E+002	-4.0323070E-001	-1.9597107E+000	0
5.140647870136163E+002	-4.0221900E-001	-1.9597362E+000	0
5.144399870041379E+002	-4.0120733E-001	-1.9597553E+000	0
5.148537869936845E+002	-4.0019566E-001	-1.9597553E+000	0
5.152451869837969E+002	-3.9916489E-001	-1.9597553E+000	0
5.156517869735253E+002	-3.9811501E-001	-1.9597425E+000	0
5.160637869631173E+002	-3.9710334E-001	-1.9596407E+000	0
5.164759869527043E+002	-3.9609167E-001	-1.9597362E+000	0
5.168569869430794E+002	-3.9506090E-001	-1.9597553E+000	0
5.172743869325350E+002	-3.9404923E-001	-1.9597298E+000	0
5.176977869218390E+002	-3.9301845E-001	-1.9597107E+000	0
5.180875869119918E+002	-3.9198768E-001	-1.9597107E+000	0
5.185117869012756E+002	-3.9093781E-001	-1.9596280E+000	0
5.189695868897106E+002	-3.8988796E-001	-1.9597234E+000	0
5.193991868788580E+002	-3.8887629E-001	-1.9596790E+000	0
5.198345868678589E+002	-3.8786459E-001	-1.9597172E+000	0
5.202431868575368E+002	-3.8683385E-001	-1.9596981E+000	0
5.207129868456686E+002	-3.8580307E-001	-1.9597172E+000	0
5.211679868341744E+002	-3.8479137E-001	-1.9597553E+000	0
5.215917868234683E+002	-3.8370335E-001	-1.9597234E+000	0
5.220765868112212E+002	-3.8269168E-001	-1.9596661E+000	0
5.225259867998684E+002	-3.8167998E-001	-1.9597172E+000	0
5.229183867899555E+002	-3.8064921E-001	-1.9597489E+000	0
5.233863867781329E+002	-3.7961847E-001	-1.9596852E+000	0
5.238067867675127E+002	-3.7860677E-001	-1.9597425E+000	0
5.242343867567106E+002	-3.7759510E-001	-1.9597298E+000	0
5.246903867451911E+002	-3.7658340E-001	-1.9596916E+000	0
5.251043867347325E+002	-3.7557173E-001	-1.9596661E+000	0
5.255681867230160E+002	-3.7456006E-001	-1.9597172E+000	0
5.260281867113954E+002	-3.7354836E-001	-1.9597489E+000	0
5.264757867000881E+002	-3.7251759E-001	-1.9596981E+000	0
5.269527866880380E+002	-3.7148684E-001	-1.9597172E+000	0
5.273993866767560E+002	-3.7043697E-001	-1.9597234E+000	0
5.278627866650495E+002	-3.6942530E-001	-1.9596790E+000	0
5.283181866535451E+002	-3.6837545E-001	-1.9597744E+000	0
5.287487866426673E+002	-3.6732557E-001	-1.9597362E+000	0
5.292043866311578E+002	-3.6631390E-001	-1.9597234E+000	0
5.296225866205932E+002	-3.6530221E-001	-1.9597298E+000	0
5.300499866097962E+002	-3.6429054E-001	-1.9597362E+000	0
5.302983866035211E+002	-3.6012930E-001	-1.9597807E+000	0
5.302987866035110E+002	-3.5890764E-001	-1.9597172E+000	0
5.303033866033948E+002	-3.5552901E-001	-1.9597681E+000	0
5.303035866033897E+002	-3.5300934E-001	-1.9597234E+000	0
5.303061866033240E+002	-3.5182586E-001	-1.9596598E+000	0
5.303123866031674E+002	-3.5062331E-001	-1.9597489E+000	0
5.303167866030562E+002	-3.5165408E-001	-1.9597298E+000	0
5.303175866030360E+002	-3.5320023E-001	-1.9597362E+000	0
5.303183866030158E+002	-3.5430735E-001	-1.9597489E+000	0
5.303193866029906E+002	-3.5541448E-001	-1.9597681E+000	0
5.303197866029805E+002	-3.5390651E-001	-1.9597298E+000	0
5.303207866029552E+002	-3.5587260E-001	-1.9597234E+000	0
5.303211866029451E+002	-3.5812500E-001	-1.9597425E+000	0
5.303215866029350E+002	-3.5928941E-001	-1.9596981E+000	0
5.303217866029299E+002	-3.5772416E-001	-1.9597234E+000	0
5.303241866028693E+002	-3.5885036E-001	-1.9597553E+000	0
5.303249866028491E+002	-3.6022472E-001	-1.9596981E+000	0
5.303309866026975E+002	-3.6129367E-001	-1.9597298E+000	0
5.303379866025207E+002	-3.5991931E-001	-1.9596790E+000	0
5.303385866025055E+002	-3.5827771E-001	-1.9597107E+000	0
5.303387866025005E+002	-3.5507089E-001	-1.9596598E+000	0
5.303407866024500E+002	-3.5308570E-001	-1.9597681E+000	0
5.303409866024449E+002	-3.5178769E-001	-1.9596916E+000	0
5.303427866023994E+002	-3.5071874E-001	-1.9596981E+000	0
5.303505866022024E+002	-3.4966889E-001	-1.9597234E+000	0
5.303553866020811E+002	-3.4800822E-001	-1.9597553E+000	0
5.303569866020407E+002	-3.4697744E-001	-1.9597489E+000	0
5.303623866019043E+002	-3.4812275E-001	-1.9597362E+000	0
5.303665866017982E+002	-3.4924895E-001	-1.9596852E+000	0
5.303679866017628E+002	-3.5026065E-001	-1.9596726E+000	0
5.303713866016769E+002	-3.4879082E-001	-1.9597807E+000	0
5.303739866016113E+002	-3.4682474E-001	-1.9597362E+000	0
5.303765866015456E+002	-3.4344611E-001	-1.9597298E+000	0
5.303767866015405E+002	-3.4184268E-001	-1.9597298E+000	0
5.303791866014799E+002	-3.4083101E-001	-1.9596981E+000	0
5.303887866012374E+002	-3.4189996E-001	-1.9597553E+000	0
5.303895866012172E+002	-3.4329340E-001	-1.9597362E+000	0
5.303905866011919E+002	-3.4037289E-001	-1.9597553E+000	0
5.303921866011515E+002	-3.3928487E-001	-1.9597234E+000	0
5.303959866010555E+002	-3.3815864E-001	-1.9597298E+000	0
5.303961866010504E+002	-3.3712786E-001	-1.9596790E+000	0
5.303999866009544E+002	-3.3922759E-001	-1.9596471E+000	0
5.304003866009443E+002	-3.4044924E-001	-1.9596343E+000	0
5.304007866009342E+002	-3.3876947E-001	-1.9597298E+000	0
5.304023866008938E+002	-3.3703244E-001	-1.9596981E+000	0
5.304029866008786E+002	-3.3552447E-001	-1.9597298E+000	0
5.304039866008534E+002	-3.3447459E-001	-1.9597043E+000	0
5.304047866008332E+002	-3.3321476E-001	-1.9596916E+000	0
5.304065866007877E+002	-3.3208856E-001	-1.9597616E+000	0
5.304097866007069E+002	-3.3100054E-001	-1.9596852E+000	0
5.304233866003633E+002	-3.2989341E-001	-1.9597553E+000	0
5.304265866002825E+002	-3.3094326E-001	-1.9597234E+000	0
5.304289866002218E+002	-3.3203131E-001	-1.9597234E+000	0
5.304303866001865E+002	-3.2968342E-001	-1.9597553E+000	0
5.304309866001713E+002	-3.2853815E-001	-1.9597234E+000	0
5.304339866000955E+002	-3.2746920E-001	-1.9597362E+000	0
5.304401865999389E+002	-3.2848087E-001	-1.9596535E+000	0
5.304421865998884E+002	-3.2960707E-001	-1.9596471E+000	0
5.304429865998682E+002	-3.3101961E-001	-1.9596981E+000	0
5.304433865998581E+002	-3.3205038E-001	-1.9597172E+000	0
5.304439865998429E+002	-3.3460823E-001	-1.9597298E+000	0
5.304447865998227E+002	-3.3602074E-001	-1.9596852E+000	0
5.304455865998025E+002	-3.3474183E-001	-1.9597681E+000	0
5.304457865997974E+002	-3.3222219E-001	-1.9596661E+000	0
5.304479865997419E+002	-3.3346292E-001	-1.9597043E+000	0
5.304483865997317E+002	-3.3613527E-001	-1.9597425E+000	0
5.304485865997267E+002	-3.3434099E-001	-1.9597234E+000	0
5.304511865996610E+002	-3.3539084E-001	-1.9596981E+000	0
5.304519865996408E+002	-3.3678427E-001	-1.9596535E+000	0
5.304521865996358E+002	-3.3808228E-001	-1.9596916E+000	0
5.304529865996155E+002	-3.3695608E-001	-1.9596790E+000	0
5.304531865996105E+002	-3.3491364E-001	-1.9597298E+000	0
5.304561865995347E+002	-3.3607802E-001	-1.9596916E+000	0
5.304565865995246E+002	-3.3712786E-001	-1.9596981E+000	0
5.304567865995195E+002	-3.3836862E-001	-1.9597043E+000	0
5.304571865995094E+002	-3.3968571E-001	-1.9596852E+000	0
5.304577865994943E+002	-3.4085009E-001	-1.9596852E+000	0
5.304587865994690E+002	-3.3976206E-001	-1.9596981E+000	0
5.304627865993680E+002	-3.4077373E-001	-1.9597425E+000	0
5.304629865993629E+002	-3.3911306E-001	-1.9597107E+000	0
5.304631865993579E+002	-3.3771962E-001	-1.9597298E+000	0
5.304641865993326E+002	-3.3649796E-001	-1.9596852E+000	0
5.304655865992972E+002	-3.3544812E-001	-1.9597234E+000	0
5.304657865992922E+002	-3.3025607E-001	-1.9597172E+000	0
5.304659865992871E+002	-3.2876718E-001	-1.9597616E+000	0
5.304669865992619E+002	-3.2769826E-001	-1.9597234E+000	0
5.304671865992568E+002	-3.2504499E-001	-1.9597681E+000	0
5.304673865992518E+002	-3.2372788E-001	-1.9597298E+000	0
5.304687865992164E+002	-3.2258257E-001	-1.9596981E+000	0
5.304701865991810E+002	-3.2126549E-001	-1.9597362E+000	0
5.304707865991659E+002	-3.2002476E-001	-1.9596407E+000	0
5.304827865988627E+002	-3.1901306E-001	-1.9597362E+000	0
5.304841865988274E+002	-3.1779143E-001	-1.9597234E+000	0
5.304859865987819E+002	-3.1662703E-001	-1.9596790E+000	0
5.304881865987263E+002	-3.1525266E-001	-1.9597362E+000	0
5.304937865985848E+002	-3.1422189E-001	-1.9597362E+000	0
5.304981865984737E+002	-3.1534812E-001	-1.9597172E+000	0
5.304995865984383E+002	-3.1662703E-001	-1.9596598E+000	0
5.305003865984181E+002	-3.1781051E-001	-1.9596407E+000	0
5.305019865983777E+002	-3.1886035E-001	-1.9596726E+000	0
5.305033865983423E+002	-3.1998658E-001	-1.9597553E+000	0
5.305043865983171E+002	-3.2099825E-001	-1.9596790E+000	0
5.305067865982564E+002	-3.1779143E-001	-1.9597998E+000	0
5.305069865982514E+002	-3.1508088E-001	-1.9597234E+000	0
5.305075865982362E+002	-3.1343928E-001	-1.9597616E+000	0
5.305079865982261E+002	-3.1227490E-001	-1.9596790E+000	0
5.305107865981554E+002	-3.1084326E-001	-1.9597234E+000	0
5.305139865980746E+002	-3.0975524E-001	-1.9597362E+000	0
5.305199865979230E+002	-3.1086236E-001	-1.9597107E+000	0
5.305205865979078E+002	-3.0914441E-001	-1.9597043E+000	0
5.305267865977512E+002	-3.0794185E-001	-1.9596852E+000	0
5.305325865976047E+002	-3.0899170E-001	-1.9597616E+000	0
5.305351865975390E+002	-3.1017518E-001	-1.9596790E+000	0
5.305369865974935E+002	-3.1122503E-001	-1.9596598E+000	0
5.305381865974632E+002	-3.1225580E-001	-1.9597298E+000	0
5.305399865974177E+002	-3.1340110E-001	-1.9597298E+000	0
5.305415865973773E+002	-3.0994612E-001	-1.9598063E+000	0
5.305417865973723E+002	-3.0881992E-001	-1.9597172E+000	0
5.305433865973318E+002	-3.0990794E-001	-1.9597807E+000	0
5.305437865973217E+002	-3.1216037E-001	-1.9597425E+000	0
5.305441865973116E+002	-3.1322932E-001	-1.9596916E+000	0
5.305453865972813E+002	-3.1028971E-001	-1.9596981E+000	0
5.305509865971399E+002	-3.1143501E-001	-1.9596916E+000	0
5.305523865971045E+002	-3.1258032E-001	-1.9597298E+000	0
5.305543865970540E+002	-3.1366834E-001	-1.9597107E+000	0
5.305545865970489E+002	-3.1177860E-001	-1.9597681E+000	0
5.305547865970439E+002	-3.1044242E-001	-1.9597298E+000	0
5.305555865970236E+002	-3.0757916E-001	-1.9597172E+000	0
5.305567865969933E+002	-3.0656749E-001	-1.9596852E+000	0
5.305653865967761E+002	-3.0400965E-001	-1.9597425E+000	0
5.305681865967053E+002	-3.0265439E-001	-1.9597107E+000	0
5.305683865967003E+002	-3.0137548E-001	-1.9597172E+000	0
5.305745865965437E+002	-3.0255896E-001	-1.9597298E+000	0
5.305753865965235E+002	-3.0379969E-001	-1.9597807E+000	0
5.305757865965134E+002	-3.0192903E-001	-1.9597298E+000	0
5.305781865964527E+002	-3.0299798E-001	-1.9597553E+000	0
5.305803865963971E+002	-2.9916123E-001	-1.9597553E+000	0
5.305805865963921E+002	-2.9799685E-001	-1.9597425E+000	0
5.305833865963214E+002	-2.9624072E-001	-1.9597043E+000	0
5.305837865963113E+002	-2.9473275E-001	-1.9597744E+000	0
5.305949865960283E+002	-2.9574442E-001	-1.9597362E+000	0
5.305951865960233E+002	-2.9454187E-001	-1.9597425E+000	0
5.305985865959374E+002	-2.9257575E-001	-1.9597298E+000	0
5.306003865958919E+002	-2.9125866E-001	-1.9597362E+000	0
5.306091865956696E+002	-2.9232761E-001	-1.9597362E+000	0
5.306117865956039E+002	-2.9335839E-001	-1.9597172E+000	0
5.306133865955635E+002	-2.9438916E-001	-1.9597425E+000	0
5.306187865954271E+002	-2.9545811E-001	-1.9597172E+000	0
5.306215865953563E+002	-2.9664156E-001	-1.9597681E+000	0
5.306229865953210E+002	-2.9767233E-001	-1.9597107E+000	0
5.306245865952806E+002	-2.9872221E-001	-1.9597107E+000	0
5.306267865952250E+002	-2.9990566E-001	-1.9597234E+000	0
5.306271865952149E+002	-2.9855040E-001	-1.9597172E+000	0
5.306285865951795E+002	-2.9986748E-001	-1.9597043E+000	0
5.306297865951492E+002	-3.0112731E-001	-1.9596916E+000	0
5.306305865951290E+002	-3.0217719E-001	-1.9597807E+000	0
5.306313865951088E+002	-3.0364698E-001	-1.9597298E+000	0
5.306319865950936E+002	-3.0511677E-001	-1.9597362E+000	0
5.306323865950835E+002	-3.0704468E-001	-1.9597043E+000	0
5.306327865950734E+002	-3.0820909E-001	-1.9597681E+000	0
5.306335865950532E+002	-3.0931622E-001	-1.9597043E+000	0
5.306345865950279E+002	-3.1042334E-001	-1.9597553E+000	0
5.306357865949976E+002	-3.1158772E-001	-1.9597298E+000	0
5.306367865949724E+002	-3.1269485E-001	-1.9597616E+000	0
5.306373865949572E+002	-3.1376380E-001	-1.9597681E+000	0
5.306383865949319E+002	-3.0950710E-001	-1.9598063E+000	0
5.306391865949117E+002	-3.0830452E-001	-1.9596916E+000	0
5.306401865948865E+002	-3.0693015E-001	-1.9597362E+000	0
5.306463865947298E+002	-3.0796093E-001	-1.9596598E+000	0
5.306489865946642E+002	-3.0927804E-001	-1.9597107E+000	0
5.306491865946591E+002	-3.1063330E-001	-1.9597043E+000	0
5.306493865946541E+002	-3.1288573E-001	-1.9596152E+000	0
5.306495865946490E+002	-3.1458458E-001	-1.9596981E+000	0
5.306503865946288E+002	-3.1565353E-001	-1.9596981E+000	0
5.306505865946237E+002	-3.1378287E-001	-1.9597425E+000	0
5.306507865946187E+002	-3.1080508E-001	-1.9597681E+000	0
5.306513865946035E+002	-3.0750281E-001	-1.9597489E+000	0
5.306547865945176E+002	-3.0895352E-001	-1.9597362E+000	0
5.306555865944974E+002	-3.0725467E-001	-1.9597489E+000	0
5.306591865944065E+002	-3.0582306E-001	-1.9597298E+000	0
5.306593865944014E+002	-3.0414328E-001	-1.9597172E+000	0
5.306595865943964E+002	-3.0309343E-001	-1.9597362E+000	0
5.306597865943913E+002	-3.0200538E-001	-1.9597489E+000	0
5.306641865942802E+002	-3.0087918E-001	-1.9597172E+000	0
5.306677865941892E+002	-2.9982930E-001	-1.9597489E+000	0
5.306679865941842E+002	-2.9778686E-001	-1.9597298E+000	0
5.306709865941084E+002	-2.9658431E-001	-1.9597425E+000	0
5.306711865941033E+002	-2.9555354E-001	-1.9597362E+000	0
5.306727865940629E+002	-2.9291934E-001	-1.9597934E+000	0
5.306749865940074E+002	-2.9190767E-001	-1.9597298E+000	0
5.306825865938154E+002	-2.9301479E-001	-1.9597362E+000	0
5.306887865936587E+002	-2.9406464E-001	-1.9597489E+000	0
5.306937865935324E+002	-2.9303387E-001	-1.9596726E+000	0
5.306953865934920E+002	-2.9410282E-001	-1.9597425E+000	0
5.306989865934011E+002	-2.9291934E-001	-1.9596790E+000	0
5.307021865933202E+002	-2.9398829E-001	-1.9597681E+000	0
5.307025865933101E+002	-2.9265210E-001	-1.9597234E+000	0
5.307041865932697E+002	-2.9070511E-001	-1.9597807E+000	0
5.307059865932242E+002	-2.8965524E-001	-1.9596916E+000	0
5.307117865930777E+002	-2.8746009E-001	-1.9597298E+000	0
5.307147865930019E+002	-2.8858632E-001	-1.9597681E+000	0
5.307185865929059E+002	-2.8747919E-001	-1.9597553E+000	0
5.307195865928807E+002	-2.8644842E-001	-1.9597234E+000	0
5.307275865926786E+002	-2.8746009E-001	-1.9597234E+000	0
5.307345865925017E+002	-2.8866267E-001	-1.9596916E+000	0
5.307359865924664E+002	-2.8973159E-001	-1.9597234E+000	0
5.307369865924411E+002	-2.9097235E-001	-1.9597172E+000	0
5.307389865923906E+002	-2.9207948E-001	-1.9596981E+000	0
5.307395865923754E+002	-2.9345381E-001	-1.9596726E+000	0
5.307399865923653E+002	-2.9446551E-001	-1.9597489E+000	0
5.307409865923401E+002	-2.9568717E-001	-1.9597234E+000	0
5.307423865923047E+002	-2.9429370E-001	-1.9597425E+000	0
5.307491865921329E+002	-2.9309115E-001	-1.9597043E+000	0
5.307513865920773E+002	-2.9129684E-001	-1.9596981E+000	0
5.307565865919460E+002	-2.8980795E-001	-1.9597489E+000	0
5.307589865918853E+002	-2.8873900E-001	-1.9597172E+000	0
5.307609865918348E+002	-2.8982705E-001	-1.9597489E+000	0
5.307687865916378E+002	-2.9106778E-001	-1.9597172E+000	0
5.307703865915973E+002	-2.9225126E-001	-1.9597172E+000	0
5.307713865915721E+002	-2.9326293E-001	-1.9597553E+000	0
5.307747865914862E+002	-2.9206038E-001	-1.9597234E+000	0
5.307803865913447E+002	-2.9316750E-001	-1.9597298E+000	0
5.307807865913346E+002	-2.9186949E-001	-1.9597298E+000	0
5.307813865913195E+002	-2.9036152E-001	-1.9597362E+000	0
5.307835865912639E+002	-2.9152590E-001	-1.9597298E+000	0
5.307863865911932E+002	-2.9276663E-001	-1.9596535E+000	0
5.307883865911426E+002	-2.9133502E-001	-1.9597425E+000	0
5.307909865910769E+002	-2.8921622E-001	-1.9597681E+000	0
5.307911865910719E+002	-2.8694472E-001	-1.9597234E+000	0
5.307941865909961E+002	-2.8570396E-001	-1.9596981E+000	0
5.307965865909355E+002	-2.8467321E-001	-1.9597425E+000	0
5.308003865908395E+002	-2.8184813E-001	-1.9597234E+000	0
5.308055865907081E+002	-2.8289798E-001	-1.9597425E+000	0
5.308077865906525E+002	-2.8146636E-001	-1.9596661E+000	0
5.308097865906020E+002	-2.8045470E-001	-1.9597043E+000	0
5.308145865904808E+002	-2.8154272E-001	-1.9597172E+000	0
5.308165865904302E+002	-2.8261167E-001	-1.9596790E+000	0
5.308171865904151E+002	-2.8129458E-001	-1.9597234E+000	0
5.308199865903443E+002	-2.8230625E-001	-1.9596726E+000	0
5.308211865903140E+002	-2.8125641E-001	-1.9597298E+000	0
5.308217865902989E+002	-2.8001565E-001	-1.9597553E+000	0
5.308245865902281E+002	-2.7850768E-001	-1.9597616E+000	0
5.308249865902180E+002	-2.7654159E-001	-1.9597681E+000	0
5.308265865901776E+002	-2.7531993E-001	-1.9596343E+000	0
5.308293865901069E+002	-2.7409828E-001	-1.9596981E+000	0
5.308361865899351E+002	-2.7518630E-001	-1.9596790E+000	0
5.308419865897886E+002	-2.7633160E-001	-1.9597234E+000	0
5.308423865897785E+002	-2.7411738E-001	-1.9597043E+000	0
5.308425865897734E+002	-2.7306750E-001	-1.9597425E+000	0
5.308463865896774E+002	-2.7196038E-001	-1.9597234E+000	0
5.308475865896471E+002	-2.7301025E-001	-1.9597107E+000	0
5.308549865894602E+002	-2.7407920E-001	-1.9596852E+000	0
5.308583865893743E+002	-2.7299115E-001	-1.9596981E+000	0
5.308599865893339E+002	-2.7192220E-001	-1.9597616E+000	0
5.308609865893086E+002	-2.7075782E-001	-1.9597172E+000	0
5.308631865892530E+002	-2.6837179E-001	-1.9597553E+000	0
5.308665865891671E+002	-2.6694015E-001	-1.9596981E+000	0
5.308699865890812E+002	-2.6818091E-001	-1.9597553E+000	0
5.308703865890711E+002	-2.6924986E-001	-1.9597107E+000	0
5.308707865890610E+002	-2.6818091E-001	-1.9597234E+000	0
5.308725865890156E+002	-2.6667294E-001	-1.9597043E+000	0
5.308749865889549E+002	-2.6799002E-001	-1.9597298E+000	0
5.308789865888539E+002	-2.6903987E-001	-1.9597425E+000	0
5.308807865888084E+002	-2.6797092E-001	-1.9597234E+000	0
5.308827865887579E+002	-2.6663476E-001	-1.9596981E+000	0
5.308829865887528E+002	-2.6499316E-001	-1.9597298E+000	0
5.308869865886518E+002	-2.6613846E-001	-1.9597172E+000	0
5.308891865885962E+002	-2.6716921E-001	-1.9597934E+000	0
5.308915865885356E+002	-2.6569942E-001	-1.9597807E+000	0
5.308957865884295E+002	-2.6674929E-001	-1.9597425E+000	0
5.308971865883941E+002	-2.6497406E-001	-1.9597298E+000	0
5.309027865882526E+002	-2.6598576E-001	-1.9597362E+000	0
5.309037865882274E+002	-2.6384786E-001	-1.9597107E+000	0
5.309089865880960E+002	-2.6256895E-001	-1.9596981E+000	0
5.309099865880708E+002	-2.6096553E-001	-1.9597362E+000	0
5.309177865878737E+002	-2.5924757E-001	-1.9596598E+000	0
5.309215865877777E+002	-2.6027834E-001	-1.9597362E+000	0
5.309261865876615E+002	-2.6136637E-001	-1.9596852E+000	0
5.309303865875554E+002	-2.6239714E-001	-1.9597234E+000	0
5.309305865875504E+002	-2.6016381E-001	-1.9597553E+000	0
5.309393865873280E+002	-2.6119459E-001	-1.9597043E+000	0
5.309405865872977E+002	-2.6220626E-001	-1.9597553E+000	0
5.309421865872573E+002	-2.6329428E-001	-1.9597172E+000	0
5.309437865872169E+002	-2.6449686E-001	-1.9596916E+000	0
5.309451865871815E+002	-2.6562306E-001	-1.9597172E+000	0
5.309489865870855E+002	-2.6669201E-001	-1.9597172E+000	0
5.309501865870552E+002	-2.6778004E-001	-1.9596981E+000	0
5.309517865870148E+002	-2.6879174E-001	-1.9597298E+000	0
5.309545865869441E+002	-2.6991794E-001	-1.9597616E+000	0
5.309561865869036E+002	-2.6835269E-001	-1.9597681E+000	0
5.309565865868935E+002	-2.6655841E-001	-1.9596981E+000	0
5.309571865868784E+002	-2.6533675E-001	-1.9596916E+000	0
5.309579865868582E+002	-2.6411510E-001	-1.9597425E+000	0
5.309597865868127E+002	-2.6232079E-001	-1.9597043E+000	0
5.309599865868076E+002	-2.6125184E-001	-1.9596790E+000	0
5.309611865867773E+002	-2.6010653E-001	-1.9597681E+000	0
5.309655865866662E+002	-2.5888491E-001	-1.9597489E+000	0
5.309693865865702E+002	-2.5752962E-001	-1.9596852E+000	0
5.309771865863731E+002	-2.5859857E-001	-1.9597043E+000	0
5.309803865862923E+002	-2.5752962E-001	-1.9597553E+000	0
5.309855865861609E+002	-2.5854132E-001	-1.9597362E+000	0
5.309883865860902E+002	-2.5962934E-001	-1.9596981E+000	0
5.309897865860548E+002	-2.6088917E-001	-1.9597107E+000	0
5.309907865860296E+002	-2.6193902E-001	-1.9597489E+000	0
5.309915865860094E+002	-2.6046923E-001	-1.9597043E+000	0
5.309931865859689E+002	-2.6148090E-001	-1.9596661E+000	0
5.309971865858679E+002	-2.5983930E-001	-1.9597234E+000	0
5.310013865857618E+002	-2.6087007E-001	-1.9596852E+000	0
5.310037865857012E+002	-2.5962934E-001	-1.9596916E+000	0
5.310087865855749E+002	-2.6064101E-001	-1.9597107E+000	0
5.310105865855294E+002	-2.5959116E-001	-1.9597043E+000	0
5.310117865854991E+002	-2.5823590E-001	-1.9597362E+000	0
5.310123865854839E+002	-2.5722420E-001	-1.9597553E+000	0
5.310127865854738E+002	-2.5579259E-001	-1.9597172E+000	0
5.310141865854384E+002	-2.5411281E-001	-1.9597425E+000	0
5.310161865853879E+002	-2.5266209E-001	-1.9597107E+000	0
5.310177865853475E+002	-2.5111595E-001	-1.9597425E+000	0
5.310219865852414E+002	-2.5008518E-001	-1.9597362E+000	0
5.310229865852161E+002	-2.4903533E-001	-1.9597043E+000	0
5.310233865852060E+002	-2.4685927E-001	-1.9597362E+000	0
5.310279865850898E+002	-2.4525584E-001	-1.9597934E+000	0
5.310283865850797E+002	-2.4411055E-001	-1.9597107E+000	0
5.310311865850090E+002	-2.4187721E-001	-1.9597107E+000	0
5.310317865849938E+002	-2.4082737E-001	-1.9596535E+000	0
5.310335865849484E+002	-2.3964389E-001	-1.9596852E+000	0
5.310355865848978E+002	-2.3840314E-001	-1.9596981E+000	0
5.310359865848877E+002	-2.3655158E-001	-1.9597043E+000	0
5.310497865845391E+002	-2.3502451E-001	-1.9597681E+000	0
5.310513865844987E+002	-2.3298207E-001	-1.9596981E+000	0
5.310555865843926E+002	-2.3181768E-001	-1.9597425E+000	0
5.310589865843067E+002	-2.3288663E-001	-1.9597616E+000	0
5.310617865842360E+002	-2.3393649E-001	-1.9597298E+000	0
5.310663865841198E+002	-2.3494816E-001	-1.9596981E+000	0
5.310679865840793E+002	-2.3595984E-001	-1.9597043E+000	0
5.310697865840339E+002	-2.3697153E-001	-1.9597553E+000	0
5.310711865839985E+002	-2.3811682E-001	-1.9597362E+000	0
5.310749865839025E+002	-2.3664702E-001	-1.9597298E+000	0
5.310793865837913E+002	-2.3771597E-001	-1.9597107E+000	0
5.310819865837257E+002	-2.3664702E-001	-1.9596981E+000	0
5.310855865836347E+002	-2.3767780E-001	-1.9597234E+000	0
5.310879865835741E+002	-2.3870856E-001	-1.9596407E+000	0
5.310887865835539E+002	-2.3741056E-001	-1.9597234E+000	0
5.310899865835236E+002	-2.3458548E-001	-1.9597934E+000	0
5.310917865834781E+002	-2.3303933E-001	-1.9596852E+000	0
5.310973865833366E+002	-2.3195130E-001	-1.9597172E+000	0
5.311003865832608E+002	-2.3298207E-001	-1.9596916E+000	0
5.311023865832103E+002	-2.3405102E-001	-1.9597362E+000	0
5.311049865831446E+002	-2.3559716E-001	-1.9596916E+000	0
5.311087865830486E+002	-2.3670429E-001	-1.9596726E+000	0
5.311103865830082E+002	-2.3569261E-001	-1.9596981E+000	0
5.311105865830032E+002	-2.3449004E-001	-1.9596981E+000	0
5.311167865828465E+002	-2.3565443E-001	-1.9596790E+000	0
5.311203865827556E+002	-2.3424189E-001	-1.9597425E+000	0
5.311211865827354E+002	-2.3284845E-001	-1.9597425E+000	0
5.311245865826495E+002	-2.3176041E-001	-1.9597107E+000	0
5.311271865825838E+002	-2.3065329E-001	-1.9597425E+000	0
5.311335865824221E+002	-2.3166497E-001	-1.9597172E+000	0
5.311413865822251E+002	-2.3036698E-001	-1.9597107E+000	0
5.311417865822150E+002	-2.2901170E-001	-1.9597681E+000	0
5.311427865821897E+002	-2.2738919E-001	-1.9597681E+000	0
5.311439865821594E+002	-2.2635843E-001	-1.9597298E+000	0
5.311589865817805E+002	-2.2506042E-001	-1.9597298E+000	0
5.311611865817249E+002	-2.2402965E-001	-1.9597871E+000	0
5.311637865816592E+002	-2.2254077E-001	-1.9597298E+000	0
5.311647865816340E+002	-2.1988748E-001	-1.9597681E+000	0
5.311655865816138E+002	-2.1874219E-001	-1.9597298E+000	0
5.311659865816036E+002	-2.1731056E-001	-1.9597234E+000	0
5.311691865815228E+002	-2.1629888E-001	-1.9597172E+000	0
5.311939865808963E+002	-2.1732965E-001	-1.9597298E+000	0
5.311947865808761E+002	-2.1566898E-001	-1.9597616E+000	0
5.311965865808306E+002	-2.1391284E-001	-1.9597043E+000	0
5.312025865806791E+002	-2.1238577E-001	-1.9597172E+000	0
5.312161865803355E+002	-2.1345472E-001	-1.9596981E+000	0
5.312179865802900E+002	-2.1452367E-001	-1.9596726E+000	0
5.312207865802193E+002	-2.1557353E-001	-1.9597172E+000	0
5.312233865801536E+002	-2.1658520E-001	-1.9597107E+000	0
5.312261865800829E+002	-2.1540174E-001	-1.9597298E+000	0
5.312263865800778E+002	-2.1435188E-001	-1.9596916E+000	0
5.312275865800475E+002	-2.1328293E-001	-1.9597616E+000	0
5.312325865799212E+002	-2.1217582E-001	-1.9596726E+000	0
5.312343865798757E+002	-2.1043877E-001	-1.9597489E+000	0
5.312411865797039E+002	-2.1145046E-001	-1.9596981E+000	0
5.312431865796534E+002	-2.1253848E-001	-1.9597553E+000	0
5.312459865795827E+002	-2.1355017E-001	-1.9596916E+000	0
5.312519865794311E+002	-2.1190858E-001	-1.9597553E+000	0
5.312571865792997E+002	-2.1089689E-001	-1.9597362E+000	0
5.312603865792189E+002	-2.0980886E-001	-1.9597107E+000	0
5.312641865791229E+002	-2.0864448E-001	-1.9597172E+000	0
5.312817865786783E+002	-2.0971341E-001	-1.9596790E+000	0
5.312835865786328E+002	-2.1085872E-001	-1.9597043E+000	0
5.312953865783347E+002	-2.0973250E-001	-1.9597234E+000	0
5.313023865781579E+002	-2.1089689E-001	-1.9597043E+000	0
5.313049865780922E+002	-2.1190858E-001	-1.9597234E+000	0
5.313131865778851E+002	-2.1085872E-001	-1.9597172E+000	0
5.313139865778649E+002	-2.0973250E-001	-1.9597107E+000	0
5.313147865778446E+002	-2.0797639E-001	-1.9597362E+000	0
5.313167865777941E+002	-2.0683108E-001	-1.9597107E+000	0
5.313289865774859E+002	-2.0793821E-001	-1.9597871E+000	0
5.313319865774101E+002	-2.0902623E-001	-1.9596981E+000	0
5.313349865773343E+002	-2.1009518E-001	-1.9596981E+000	0
5.313383865772485E+002	-2.0900714E-001	-1.9597107E+000	0
5.313477865770110E+002	-2.1001883E-001	-1.9596981E+000	0
5.313535865768645E+002	-2.1112595E-001	-1.9597298E+000	0
5.313725865763845E+002	-2.0990430E-001	-1.9597681E+000	0
5.313759865762986E+002	-2.0858721E-001	-1.9596852E+000	0
5.313813865761622E+002	-2.0734647E-001	-1.9596981E+000	0
5.314021865756367E+002	-2.0841542E-001	-1.9597172E+000	0
5.314087865754700E+002	-2.0950344E-001	-1.9597172E+000	0
5.314123865753791E+002	-2.1062966E-001	-1.9596981E+000	0
5.314159865752881E+002	-2.1171769E-001	-1.9596981E+000	0
5.314189865752123E+002	-2.1272936E-001	-1.9597553E+000	0
5.314217865751416E+002	-2.1376014E-001	-1.9597362E+000	0
5.314239865750860E+002	-2.1505815E-001	-1.9596726E+000	0
5.314279865749850E+002	-2.1610799E-001	-1.9596790E+000	0
5.314301865749294E+002	-2.1440914E-001	-1.9597616E+000	0
5.314351865748031E+002	-2.1549718E-001	-1.9597234E+000	0
5.314407865746616E+002	-2.1448550E-001	-1.9597744E+000	0
5.314485865744646E+002	-2.1326384E-001	-1.9596790E+000	0
5.314499865744292E+002	-2.1198493E-001	-1.9597425E+000	0
5.314553865742928E+002	-2.1097325E-001	-1.9597744E+000	0
5.314653865740402E+002	-2.0994247E-001	-1.9597425E+000	0
5.314723865738633E+002	-2.0845360E-001	-1.9597234E+000	0
5.314799865736713E+002	-2.0952253E-001	-1.9596852E+000	0
5.314877865734743E+002	-2.0835815E-001	-1.9596916E+000	0
5.314937865733227E+002	-2.0692652E-001	-1.9597107E+000	0
5.315003865731560E+002	-2.0572396E-001	-1.9597107E+000	0
5.315147865727922E+002	-2.0673564E-001	-1.9596852E+000	0
5.315167865727417E+002	-2.0564760E-001	-1.9597107E+000	0
5.315269865724840E+002	-2.0391057E-001	-1.9596471E+000	0
5.315301865724032E+002	-2.0209718E-001	-1.9597298E+000	0
5.315383865721960E+002	-2.0099007E-001	-1.9596981E+000	0
5.315409865721304E+002	-1.9995929E-001	-1.9597043E+000	0
5.315451865720242E+002	-1.9852766E-001	-1.9596407E+000	0
5.315485865719384E+002	-1.9745873E-001	-1.9597298E+000	0
5.315493865719181E+002	-1.9644704E-001	-1.9597616E+000	0
5.315507865718828E+002	-1.9543536E-001	-1.9597616E+000	0
5.315561865717464E+002	-1.9650431E-001	-1.9596726E+000	0
5.315677865714533E+002	-1.9533992E-001	-1.9597234E+000	0
5.315701865713927E+002	-1.9423279E-001	-1.9596981E+000	0
5.315719865713472E+002	-1.9318295E-001	-1.9596981E+000	0
5.315733865713119E+002	-1.9215217E-001	-1.9597298E+000	0
5.315895865709026E+002	-1.9320203E-001	-1.9597362E+000	0
5.316045865705237E+002	-1.9198038E-001	-1.9597234E+000	0
5.316063865704782E+002	-1.9075872E-001	-1.9597107E+000	0
5.316143865702761E+002	-1.9177040E-001	-1.9597234E+000	0
5.316245865700184E+002	-1.9278209E-001	-1.9596916E+000	0
5.316281865699275E+002	-1.9379377E-001	-1.9597425E+000	0
5.316323865698214E+002	-1.9491997E-001	-1.9597043E+000	0
5.316359865697304E+002	-1.9596983E-001	-1.9597616E+000	0
5.316365865697153E+002	-1.9442368E-001	-1.9597807E+000	0
5.316477865694324E+002	-1.9339292E-001	-1.9597172E+000	0
5.316501865693717E+002	-1.9463365E-001	-1.9596852E+000	0
5.316505865693616E+002	-1.9358380E-001	-1.9597234E+000	0
5.316531865692959E+002	-1.9499633E-001	-1.9597107E+000	0
5.316555865692353E+002	-1.9396557E-001	-1.9597681E+000	0
5.316783865686593E+002	-1.9511086E-001	-1.9597425E+000	0
5.316959865682147E+002	-1.9400375E-001	-1.9597616E+000	0
5.316967865681945E+002	-1.9297297E-001	-1.9597043E+000	0
5.317015865680733E+002	-1.9161770E-001	-1.9597744E+000	0
5.317355865672143E+002	-1.9264847E-001	-1.9596726E+000	0
5.317459865669516E+002	-1.9146499E-001	-1.9597172E+000	0
5.317471865669213E+002	-1.9043423E-001	-1.9597298E+000	0
5.317669865664211E+002	-1.8940346E-001	-1.9597298E+000	0
5.317709865663201E+002	-1.8801001E-001	-1.9596981E+000	0
5.317733865662594E+002	-1.8694106E-001	-1.9596916E+000	0
5.317747865662241E+002	-1.8591030E-001	-1.9597107E+000	0
5.317827865660220E+002	-1.8487953E-001	-1.9597043E+000	0
5.318405865645618E+002	-1.8589121E-001	-1.9596471E+000	0
5.318661865639151E+002	-1.8465047E-001	-1.9597234E+000	0
5.318923865632532E+002	-1.8568124E-001	-1.9597362E+000	0
5.319023865630006E+002	-1.8453594E-001	-1.9597172E+000	0
5.319207865625358E+002	-1.8556671E-001	-1.9597362E+000	0
5.319279865623539E+002	-1.8665475E-001	-1.9596981E+000	0
5.319293865623185E+002	-1.8558580E-001	-1.9597553E+000	0
5.319313865622680E+002	-1.8379149E-001	-1.9597681E+000	0
5.319445865619346E+002	-1.8234079E-001	-1.9597553E+000	0
5.319471865618689E+002	-1.8132910E-001	-1.9597298E+000	0
5.319713865612575E+002	-1.8031742E-001	-1.9597425E+000	0
5.319801865610352E+002	-1.7928666E-001	-1.9597107E+000	0
5.319921865607321E+002	-1.7812227E-001	-1.9597871E+000	0
5.320077865603380E+002	-1.7695788E-001	-1.9597362E+000	0
5.320247865599085E+002	-1.7575532E-001	-1.9597234E+000	0
5.320251865598984E+002	-1.7457184E-001	-1.9597234E+000	0
5.320297865597822E+002	-1.7354107E-001	-1.9597298E+000	0
5.320443865594134E+002	-1.7459093E-001	-1.9596790E+000	0
5.320493865592871E+002	-1.7569806E-001	-1.9596661E+000	0
5.320757865586202E+002	-1.7674790E-001	-1.9597616E+000	0
5.320785865585494E+002	-1.7522085E-001	-1.9597489E+000	0
5.320791865585343E+002	-1.7409463E-001	-1.9597553E+000	0
5.320859865583625E+002	-1.7308295E-001	-1.9597172E+000	0
5.320881865583069E+002	-1.7197584E-001	-1.9597362E+000	0
5.321385865570337E+002	-1.7033423E-001	-1.9597744E+000	0
5.321401865569933E+002	-1.6932255E-001	-1.9597172E+000	0
5.321453865568619E+002	-1.6831088E-001	-1.9597489E+000	0
5.321517865567002E+002	-1.6728011E-001	-1.9597107E+000	0
5.321535865566548E+002	-1.6615389E-001	-1.9597107E+000	0
5.321573865565588E+002	-1.6500860E-001	-1.9597172E+000	0
5.321779865560384E+002	-1.6382512E-001	-1.9597362E+000	0
5.321785865560232E+002	-1.6185902E-001	-1.9597298E+000	0
5.321811865559575E+002	-1.6084735E-001	-1.9596726E+000	0
5.322519865541690E+002	-1.6189720E-001	-1.9597172E+000	0
5.323173865525168E+002	-1.6292797E-001	-1.9596790E+000	0
5.323261865522945E+002	-1.6395874E-001	-1.9597298E+000	0
5.323385865519813E+002	-1.6288979E-001	-1.9597362E+000	0
5.323499865516933E+002	-1.6187811E-001	-1.9597234E+000	0
5.324339865495713E+002	-1.6084735E-001	-1.9597298E+000	0
5.324567865489953E+002	-1.5977840E-001	-1.9597107E+000	0
5.324945865480404E+002	-1.5869036E-001	-1.9597871E+000	0
5.325083865476918E+002	-1.5985475E-001	-1.9596916E+000	0
5.325131865475705E+002	-1.5876672E-001	-1.9596852E+000	0
5.325443865467823E+002	-1.5981658E-001	-1.9597107E+000	0
5.325541865465348E+002	-1.6088553E-001	-1.9596916E+000	0
5.325659865462367E+002	-1.5987384E-001	-1.9597681E+000	0
5.326169865449483E+002	-1.5880489E-001	-1.9597871E+000	0
5.326563865439530E+002	-1.5764052E-001	-1.9597107E+000	0
5.327389865418663E+002	-1.5867127E-001	-1.9597807E+000	0
5.327527865415177E+002	-1.5968296E-001	-1.9597489E+000	0
5.327577865413914E+002	-1.5865219E-001	-1.9596726E+000	0
5.328005865403102E+002	-1.5756416E-001	-1.9597298E+000	0
5.328251865396887E+002	-1.5655248E-001	-1.9596726E+000	0
5.328343865394563E+002	-1.5536900E-001	-1.9597298E+000	0
5.328723865384964E+002	-1.5430005E-001	-1.9597553E+000	0
5.328973865378648E+002	-1.5536900E-001	-1.9597362E+000	0
5.329099865375465E+002	-1.5639977E-001	-1.9597172E+000	0
5.329279865370918E+002	-1.5750690E-001	-1.9596916E+000	0
5.329565865363693E+002	-1.5632342E-001	-1.9597298E+000	0
5.329579865363339E+002	-1.5531173E-001	-1.9597425E+000	0
5.329847865356569E+002	-1.5653339E-001	-1.9596790E+000	0
5.329949865353992E+002	-1.5758325E-001	-1.9596981E+000	0
5.330029865351971E+002	-1.5630433E-001	-1.9597362E+000	0
5.330151865348889E+002	-1.5510176E-001	-1.9596790E+000	0
5.330223865347070E+002	-1.5407100E-001	-1.9596535E+000	0
5.330419865342119E+002	-1.5304023E-001	-1.9596852E+000	0
5.330615865337168E+002	-1.5200946E-001	-1.9597234E+000	0
5.330915865329589E+002	-1.5097868E-001	-1.9597807E+000	0
5.331057865326002E+002	-1.4994793E-001	-1.9597489E+000	0
5.331801865307207E+002	-1.5097868E-001	-1.9597172E+000	0
5.332433865291241E+002	-1.4994793E-001	-1.9597172E+000	0
5.333081865274871E+002	-1.4891715E-001	-1.9597043E+000	0
5.333259865270375E+002	-1.4786729E-001	-1.9597234E+000	0
5.333419865266333E+002	-1.4685562E-001	-1.9597425E+000	0
5.333629865261028E+002	-1.4584394E-001	-1.9597744E+000	0
5.334099865249154E+002	-1.4483225E-001	-1.9597362E+000	0
5.334957865227479E+002	-1.4374422E-001	-1.9596535E+000	0
5.335257865219901E+002	-1.4250349E-001	-1.9596852E+000	0
5.336293865193729E+002	-1.4143454E-001	-1.9597744E+000	0
5.336953865177056E+002	-1.4042285E-001	-1.9596726E+000	0
5.337349865167052E+002	-1.3941118E-001	-1.9597172E+000	0
5.337749865156948E+002	-1.4049920E-001	-1.9596598E+000	0
5.338269865143811E+002	-1.3941118E-001	-1.9597107E+000	0
5.338443865139416E+002	-1.4048012E-001	-1.9597234E+000	0
5.338739865131938E+002	-1.3946845E-001	-1.9597234E+000	0
5.338827865129715E+002	-1.3843767E-001	-1.9597172E+000	0
5.340455865088588E+002	-1.3742599E-001	-1.9596852E+000	0
5.340531865086668E+002	-1.3637613E-001	-1.9596981E+000	0
5.340697865082475E+002	-1.3534537E-001	-1.9597107E+000	0
5.340933865076513E+002	-1.3431460E-001	-1.9597043E+000	0
5.341749865055899E+002	-1.3326474E-001	-1.9596535E+000	0
5.341987865049887E+002	-1.3225307E-001	-1.9596661E+000	0
5.343935865000676E+002	-1.3328382E-001	-1.9596661E+000	0
5.344193864994159E+002	-1.3227215E-001	-1.9596981E+000	0
5.344817864978395E+002	-1.3108867E-001	-1.9596981E+000	0
5.345719864955609E+002	-1.3210036E-001	-1.9597616E+000	0
5.345753864954750E+002	-1.3085961E-001	-1.9597489E+000	0
5.346515864935500E+002	-1.2984793E-001	-1.9597172E+000	0
5.347527864909935E+002	-1.2881716E-001	-1.9597298E+000	0
5.349133864869364E+002	-1.2778640E-001	-1.9596981E+000	0
5.349833864851680E+002	-1.2677471E-001	-1.9597616E+000	0
5.350597864832380E+002	-1.2566759E-001	-1.9597043E+000	0
5.353055864770286E+002	-1.2461774E-001	-1.9597362E+000	0
5.355239864715113E+002	-1.2347244E-001	-1.9597107E+000	0
5.356643864679645E+002	-1.2244167E-001	-1.9597871E+000	0
5.361395864559599E+002	-1.2351061E-001	-1.9597681E+000	0
5.363487864506751E+002	-1.2456048E-001	-1.9596916E+000	0
5.365753864449507E+002	-1.2349153E-001	-1.9597234E+000	0
5.367009864417778E+002	-1.2234623E-001	-1.9596981E+000	0
5.367865864396153E+002	-1.2339608E-001	-1.9597425E+000	0
5.368697864375135E+002	-1.2442686E-001	-1.9596916E+000	0
5.370239864336181E+002	-1.2543853E-001	-1.9596852E+000	0
5.370453864330775E+002	-1.2645021E-001	-1.9597489E+000	0
5.378649864123727E+002	-1.2746190E-001	-1.9596981E+000	0
5.380485864077345E+002	-1.2641203E-001	-1.9597043E+000	0
5.382401864028943E+002	-1.2540035E-001	-1.9597298E+000	0
5.384973863963969E+002	-1.2641203E-001	-1.9597298E+000	0
5.389233863856352E+002	-1.2742372E-001	-1.9596661E+000	0
5.389669863845338E+002	-1.2633568E-001	-1.9597425E+000	0
5.392633863770461E+002	-1.2734737E-001	-1.9596661E+000	0
5.394079863733932E+002	-1.2847358E-001	-1.9597681E+000	0
5.395145863707003E+002	-1.2948525E-001	-1.9597234E+000	0
5.395777863691037E+002	-1.3051602E-001	-1.9597043E+000	0
5.396081863683357E+002	-1.3156588E-001	-1.9596916E+000	0
5.396535863671888E+002	-1.3055420E-001	-1.9597234E+000	0
5.397251863653801E+002	-1.2954251E-001	-1.9596852E+000	0
5.401785863539262E+002	-1.2853085E-001	-1.9597362E+000	0
5.405441863446904E+002	-1.2956160E-001	-1.9597616E+000	0
5.409407863346714E+002	-1.3057329E-001	-1.9597362E+000	0
5.410433863320795E+002	-1.3158497E-001	-1.9597425E+000	0
5.411831863285479E+002	-1.3261573E-001	-1.9597425E+000	0
5.411903863283660E+002	-1.3152771E-001	-1.9597681E+000	0
5.414109863227932E+002	-1.3253938E-001	-1.9597234E+000	0
5.415137863201962E+002	-1.3355106E-001	-1.9597489E+000	0
5.415503863192716E+002	-1.3246302E-001	-1.9597616E+000	0
5.417453863143455E+002	-1.3349380E-001	-1.9596726E+000	0
5.419659863087727E+002	-1.3452457E-001	-1.9597807E+000	0
5.421467863042053E+002	-1.3349380E-001	-1.9597043E+000	0
5.428255862870574E+002	-1.3450548E-001	-1.9597043E+000	0
5.429177862847282E+002	-1.3563170E-001	-1.9597362E+000	0
5.429929862828285E+002	-1.3679607E-001	-1.9596661E+000	0
5.431219862795697E+002	-1.3780776E-001	-1.9596852E+000	0
5.431891862778721E+002	-1.3675790E-001	-1.9597172E+000	0
5.432011862775689E+002	-1.3776958E-001	-1.9596535E+000	0
5.432363862766797E+002	-1.3673881E-001	-1.9596790E+000	0
5.433665862733906E+002	-1.3776958E-001	-1.9597107E+000	0
5.438157862620428E+002	-1.3878126E-001	-1.9596661E+000	0
5.438997862599208E+002	-1.3979293E-001	-1.9596981E+000	0
5.440221862568287E+002	-1.4088097E-001	-1.9596916E+000	0
5.442173862518976E+002	-1.4189266E-001	-1.9597234E+000	0
5.443209862492804E+002	-1.4294252E-001	-1.9597425E+000	0
5.444191862467997E+002	-1.4399236E-001	-1.9597425E+000	0
5.450087862319051E+002	-1.4500405E-001	-1.9597425E+000	0
5.451549862282118E+002	-1.4601573E-001	-1.9596981E+000	0
5.452269862263929E+002	-1.4712285E-001	-1.9597489E+000	0
5.454771862200723E+002	-1.4611118E-001	-1.9596981E+000	0
5.455433862184000E+002	-1.4712285E-001	-1.9597553E+000	0
5.457225862138730E+002	-1.4819179E-001	-1.9596790E+000	0
5.458339862110588E+002	-1.4704649E-001	-1.9597172E+000	0
5.459343862085225E+002	-1.4809635E-001	-1.9597298E+000	0
5.461525862030103E+002	-1.4706558E-001	-1.9596790E+000	0
5.462449862006761E+002	-1.4809635E-001	-1.9597043E+000	0
5.463975861968211E+002	-1.4708467E-001	-1.9597681E+000	0
5.465211861936987E+002	-1.4811544E-001	-1.9597362E+000	0
5.466631861901114E+002	-1.4912713E-001	-1.9597489E+000	0
5.468151861862716E+002	-1.4798182E-001	-1.9596852E+000	0
5.470763861796731E+002	-1.4901260E-001	-1.9597172E+000	0
5.471741861772025E+002	-1.5002428E-001	-1.9597616E+000	0
5.472401861755352E+002	-1.5115048E-001	-1.9597234E+000	0
5.472623861749744E+002	-1.5218125E-001	-1.9596981E+000	0
5.475471861677797E+002	-1.5321203E-001	-1.9597362E+000	0
5.476083861662337E+002	-1.5424278E-001	-1.9597489E+000	0
5.478075861612015E+002	-1.5531173E-001	-1.9597234E+000	0
5.481529861524759E+002	-1.5632342E-001	-1.9597553E+000	0
5.482065861511219E+002	-1.5529265E-001	-1.9597489E+000	0
5.482749861493940E+002	-1.5428096E-001	-1.9596790E+000	0
5.483713861469587E+002	-1.5533082E-001	-1.9597298E+000	0
5.484167861458118E+002	-1.5634251E-001	-1.9596916E+000	0
5.485465861425328E+002	-1.5739237E-001	-1.9597234E+000	0
5.486037861410878E+002	-1.5848039E-001	-1.9596981E+000	0
5.486255861405371E+002	-1.5954934E-001	-1.9597616E+000	0
5.487009861386323E+002	-1.5848039E-001	-1.9597807E+000	0
5.487619861370913E+002	-1.5949208E-001	-1.9597107E+000	0
5.489825861315185E+002	-1.6056103E-001	-1.9597298E+000	0
5.491713861267490E+002	-1.6157269E-001	-1.9597043E+000	0
5.492741861241520E+002	-1.6260347E-001	-1.9597298E+000	0
5.493251861228637E+002	-1.6361515E-001	-1.9596598E+000	0
5.494307861201960E+002	-1.6462684E-001	-1.9596981E+000	0
5.494719861191552E+002	-1.6565759E-001	-1.9597043E+000	0
5.496683861141937E+002	-1.6455048E-001	-1.9597107E+000	0
5.499065861081763E+002	-1.6353880E-001	-1.9596790E+000	0
5.499263861076761E+002	-1.6225988E-001	-1.9596471E+000	0
5.500169861053873E+002	-1.6329065E-001	-1.9597107E+000	0
5.501795861012797E+002	-1.6443595E-001	-1.9596852E+000	0
5.501891861010372E+002	-1.6338609E-001	-1.9597107E+000	0
5.502313860999711E+002	-1.6439778E-001	-1.9597425E+000	0
5.503729860963940E+002	-1.6338609E-001	-1.9597553E+000	0
5.503859860960656E+002	-1.6216443E-001	-1.9597234E+000	0
5.504191860952269E+002	-1.6109550E-001	-1.9597362E+000	0
5.506925860883202E+002	-1.6218352E-001	-1.9597616E+000	0
5.507315860873350E+002	-1.6321430E-001	-1.9597043E+000	0
5.507723860863043E+002	-1.6204990E-001	-1.9597043E+000	0
5.507819860860618E+002	-1.6306159E-001	-1.9597489E+000	0
5.507979860856576E+002	-1.6409236E-001	-1.9596661E+000	0
5.508257860849553E+002	-1.6304250E-001	-1.9596981E+000	0
5.508527860842732E+002	-1.6420689E-001	-1.9596726E+000	0
5.509369860821462E+002	-1.6523765E-001	-1.9597489E+000	0
5.509593860815803E+002	-1.6624933E-001	-1.9596661E+000	0
5.511017860779830E+002	-1.6523765E-001	-1.9596916E+000	0
5.512881860732741E+002	-1.6626842E-001	-1.9597107E+000	0
5.512999860729760E+002	-1.6518039E-001	-1.9597043E+000	0
5.514889860682015E+002	-1.6621116E-001	-1.9596790E+000	0
5.515489860666858E+002	-1.6729920E-001	-1.9597362E+000	0
5.516871860631945E+002	-1.6831088E-001	-1.9597362E+000	0
5.517263860622043E+002	-1.6726102E-001	-1.9596981E+000	0
5.517427860617900E+002	-1.6834906E-001	-1.9597234E+000	0
5.518223860597791E+002	-1.6726102E-001	-1.9597362E+000	0
5.518497860590869E+002	-1.6623025E-001	-1.9597489E+000	0
5.518759860584250E+002	-1.6290888E-001	-1.9598190E+000	0
5.518761860584200E+002	-1.6147725E-001	-1.9597234E+000	0
5.518843860582128E+002	-1.6044649E-001	-1.9597362E+000	0
5.518949860579451E+002	-1.5937755E-001	-1.9597298E+000	0
5.519261860571569E+002	-1.5836586E-001	-1.9597553E+000	0
5.520557860538829E+002	-1.5735419E-001	-1.9597172E+000	0
5.521911860504624E+002	-1.5836586E-001	-1.9597107E+000	0
5.522267860495631E+002	-1.5949208E-001	-1.9596661E+000	0
5.522667860485526E+002	-1.6052285E-001	-1.9597807E+000	0
5.523301860469510E+002	-1.6153452E-001	-1.9597298E+000	0
5.523961860452837E+002	-1.6254620E-001	-1.9597362E+000	0
5.524175860447431E+002	-1.6050376E-001	-1.9597362E+000	0
5.524177860447380E+002	-1.5853766E-001	-1.9597107E+000	0
5.524189860447077E+002	-1.5743054E-001	-1.9597234E+000	0
5.524257860445359E+002	-1.5639977E-001	-1.9597298E+000	0
5.524547860438033E+002	-1.5492997E-001	-1.9597234E+000	0
5.524591860436922E+002	-1.5391830E-001	-1.9596726E+000	0
5.525031860425806E+002	-1.5290661E-001	-1.9597425E+000	0
5.525411860416207E+002	-1.5189493E-001	-1.9596981E+000	0
5.525687860409234E+002	-1.5086415E-001	-1.9597934E+000	0
5.525689860409184E+002	-1.4966160E-001	-1.9597553E+000	0
5.525761860407365E+002	-1.4859265E-001	-1.9597298E+000	0
5.526807860380941E+002	-1.4737099E-001	-1.9596471E+000	0
5.526997860376141E+002	-1.4630206E-001	-1.9597807E+000	0
5.528061860349262E+002	-1.4513767E-001	-1.9597298E+000	0
5.528349860341987E+002	-1.4412598E-001	-1.9597043E+000	0
5.529751860306569E+002	-1.4311431E-001	-1.9597172E+000	0
5.531469860263169E+002	-1.4198810E-001	-1.9597107E+000	0
5.532223860244121E+002	-1.4093824E-001	-1.9597107E+000	0
5.533143860220880E+002	-1.3992655E-001	-1.9596726E+000	0
5.533329860216181E+002	-1.3885762E-001	-1.9597107E+000	0
5.534019860198750E+002	-1.3986929E-001	-1.9597362E+000	0
5.534291860191879E+002	-1.4091915E-001	-1.9596916E+000	0
5.534355860190262E+002	-1.4198810E-001	-1.9597362E+000	0
5.536413860138273E+002	-1.4303796E-001	-1.9597043E+000	0
5.537107860120741E+002	-1.4404963E-001	-1.9597553E+000	0
5.540379860038083E+002	-1.4244622E-001	-1.9597362E+000	0
5.540387860037881E+002	-1.4139636E-001	-1.9597107E+000	0
5.541407860012114E+002	-1.4038467E-001	-1.9597043E+000	0
5.543811859951384E+002	-1.4143454E-001	-1.9597234E+000	0
5.543839859950676E+002	-1.4275163E-001	-1.9597681E+000	0
5.543889859949413E+002	-1.4380148E-001	-1.9597298E+000	0
5.545187859916623E+002	-1.4483225E-001	-1.9597107E+000	0
5.545621859905659E+002	-1.4382057E-001	-1.9596981E+000	0
5.547321859862714E+002	-1.4280890E-001	-1.9596981E+000	0
5.547527859857510E+002	-1.4177813E-001	-1.9596598E+000	0
5.548099859843060E+002	-1.4284708E-001	-1.9597616E+000	0
5.548127859842352E+002	-1.4395419E-001	-1.9597234E+000	0
5.548221859839978E+002	-1.4252257E-001	-1.9597172E+000	0
5.549915859797184E+002	-1.4357242E-001	-1.9597553E+000	0
5.550351859786169E+002	-1.4256075E-001	-1.9597043E+000	0
5.550675859777984E+002	-1.4361060E-001	-1.9596916E+000	0
5.550945859771164E+002	-1.4246531E-001	-1.9597043E+000	0
5.551465859758027E+002	-1.4126274E-001	-1.9598063E+000	0
5.551467859757977E+002	-1.3881944E-001	-1.9597681E+000	0
5.551475859757775E+002	-1.3771231E-001	-1.9597107E+000	0
5.551541859756107E+002	-1.3666245E-001	-1.9596535E+000	0
5.551591859754844E+002	-1.3561261E-001	-1.9597107E+000	0
5.551685859752470E+002	-1.3458183E-001	-1.9597489E+000	0
5.552045859743375E+002	-1.3357015E-001	-1.9596981E+000	0
5.555203859663598E+002	-1.3255847E-001	-1.9597298E+000	0
5.556933859619894E+002	-1.3154680E-001	-1.9597172E+000	0
5.559081859565631E+002	-1.3021061E-001	-1.9596535E+000	0
5.559643859551434E+002	-1.2917984E-001	-1.9597234E+000	0
5.561031859516370E+002	-1.2814908E-001	-1.9597107E+000	0
5.561513859504194E+002	-1.2917984E-001	-1.9597489E+000	0
5.561689859499747E+002	-1.3019152E-001	-1.9596598E+000	0
5.562835859470797E+002	-1.3120320E-001	-1.9597107E+000	0
5.564273859434470E+002	-1.3221489E-001	-1.9597298E+000	0
5.564415859430883E+002	-1.3118412E-001	-1.9597298E+000	0
5.565409859405772E+002	-1.3000064E-001	-1.9596852E+000	0
5.565665859399305E+002	-1.2898895E-001	-1.9597807E+000	0
5.568471859328420E+002	-1.2793911E-001	-1.9596726E+000	0
5.568757859321195E+002	-1.2692742E-001	-1.9597172E+000	0
5.569799859294872E+002	-1.2591574E-001	-1.9596981E+000	0
5.569887859292649E+002	-1.2490407E-001	-1.9596790E+000	0
5.571893859241973E+002	-1.2593482E-001	-1.9596981E+000	0
5.572217859233788E+002	-1.2708013E-001	-1.9596661E+000	0
5.572713859221258E+002	-1.2811090E-001	-1.9597744E+000	0
5.572755859220197E+002	-1.2692742E-001	-1.9597934E+000	0
5.573269859207212E+002	-1.2572485E-001	-1.9597362E+000	0
5.574199859183718E+002	-1.2679380E-001	-1.9597043E+000	0
5.583549858947517E+002	-1.2780549E-001	-1.9597934E+000	0
5.585711858892901E+002	-1.2631659E-001	-1.9598063E+000	0
5.585721858892648E+002	-1.2524764E-001	-1.9597362E+000	0
5.587557858846267E+002	-1.2423597E-001	-1.9597425E+000	0
5.588437858824036E+002	-1.2528582E-001	-1.9597681E+000	0
5.592093858731678E+002	-1.2400691E-001	-1.9597998E+000	0
5.592323858725867E+002	-1.2297615E-001	-1.9597681E+000	0
5.593935858685145E+002	-1.2194537E-001	-1.9596916E+000	0
5.594413858673070E+002	-1.2087643E-001	-1.9597553E+000	0
5.595547858644422E+002	-1.1971204E-001	-1.9597807E+000	0
5.595627858642401E+002	-1.1868127E-001	-1.9597489E+000	0
5.596045858631842E+002	-1.1766960E-001	-1.9596981E+000	0
5.600885858509573E+002	-1.1497814E-001	-1.9597362E+000	0
5.601253858500277E+002	-1.1396646E-001	-1.9596981E+000	0
5.601941858482896E+002	-1.1503541E-001	-1.9596981E+000	0
5.602353858472488E+002	-1.1608526E-001	-1.9597298E+000	0
5.605573858391144E+002	-1.1734509E-001	-1.9597489E+000	0
5.606545858366590E+002	-1.1614253E-001	-1.9597107E+000	0
5.607163858350978E+002	-1.1513085E-001	-1.9596916E+000	0
5.607653858338599E+002	-1.1411917E-001	-1.9597234E+000	0
5.608225858324149E+002	-1.1306931E-001	-1.9596790E+000	0
5.608485858317581E+002	-1.1205763E-001	-1.9597234E+000	0
5.609259858298028E+002	-1.1098868E-001	-1.9597172E+000	0
5.610087858277111E+002	-1.0995792E-001	-1.9597234E+000	0
5.610211858273979E+002	-1.0892715E-001	-1.9597362E+000	0
5.612875858206680E+002	-1.0791547E-001	-1.9597298E+000	0
5.618261858070618E+002	-1.0690379E-001	-1.9597998E+000	0
5.619855858030351E+002	-1.0585393E-001	-1.9597043E+000	0
5.625023857899796E+002	-1.0688470E-001	-1.9597234E+000	0
5.632999857698305E+002	-1.0795365E-001	-1.9596916E+000	0
5.633311857690423E+002	-1.0902259E-001	-1.9596916E+000	0
5.635953857623681E+002	-1.0799182E-001	-1.9597172E+000	0
5.640461857509799E+002	-1.0698014E-001	-1.9597107E+000	0
5.642395857460942E+002	-1.0808726E-001	-1.9597043E+000	0
5.647353857335693E+002	-1.0911803E-001	-1.9597489E+000	0
5.647827857323718E+002	-1.0808726E-001	-1.9597553E+000	0
5.649307857286331E+002	-1.0909894E-001	-1.9596852E+000	0
5.652069857216557E+002	-1.1016789E-001	-1.9597616E+000	0
5.653277857186040E+002	-1.0915621E-001	-1.9597298E+000	0
5.654171857163456E+002	-1.1016789E-001	-1.9596981E+000	0
5.654967857143347E+002	-1.0915621E-001	-1.9597298E+000	0
5.656631857101311E+002	-1.1016789E-001	-1.9596407E+000	0
5.657957857067813E+002	-1.0906076E-001	-1.9597172E+000	0
5.658001857066702E+002	-1.0804909E-001	-1.9597744E+000	0
5.659403857031284E+002	-1.0909894E-001	-1.9597362E+000	0
5.664835856894060E+002	-1.1012971E-001	-1.9596916E+000	0
5.670665856746782E+002	-1.1121774E-001	-1.9597298E+000	0
5.671441856727179E+002	-1.1020607E-001	-1.9596790E+000	0
5.673755856668722E+002	-1.1123683E-001	-1.9596726E+000	0
5.675177856632799E+002	-1.1014880E-001	-1.9597107E+000	0
5.677495856574242E+002	-1.1121774E-001	-1.9596852E+000	0
5.679257856529730E+002	-1.1222943E-001	-1.9597807E+000	0
5.681577856471122E+002	-1.1121774E-001	-1.9596916E+000	0
5.688619856293226E+002	-1.1014880E-001	-1.9597616E+000	0
5.688801856288628E+002	-1.0913712E-001	-1.9596852E+000	0
5.690507856245531E+002	-1.0808726E-001	-1.9597298E+000	0
5.691937856209406E+002	-1.0909894E-001	-1.9596981E+000	0
5.700809855985281E+002	-1.1014880E-001	-1.9597172E+000	0
5.706403855843964E+002	-1.0909894E-001	-1.9597616E+000	0
5.706473855842196E+002	-1.0804909E-001	-1.9596981E+000	0
5.708833855782577E+002	-1.0907985E-001	-1.9597107E+000	0
5.709697855760751E+002	-1.1014880E-001	-1.9596852E+000	0
5.712395855692594E+002	-1.0913712E-001	-1.9597234E+000	0
5.715883855604479E+002	-1.1016789E-001	-1.9597425E+000	0
5.720995855475339E+002	-1.0890806E-001	-1.9596916E+000	0
5.723735855406121E+002	-1.0778185E-001	-1.9597234E+000	0
5.727167855319422E+002	-1.0881262E-001	-1.9596981E+000	0
5.729963855248789E+002	-1.0780094E-001	-1.9597425E+000	0
5.730665855231055E+002	-1.0885079E-001	-1.9597425E+000	0
5.736771855076804E+002	-1.0986248E-001	-1.9596981E+000	0
5.739343855011830E+002	-1.1089324E-001	-1.9596852E+000	0
5.740073854993389E+002	-1.1192401E-001	-1.9597234E+000	0
5.741759854950797E+002	-1.1293569E-001	-1.9596916E+000	0
5.742235854938772E+002	-1.1190493E-001	-1.9597489E+000	0
5.745755854849849E+002	-1.1291660E-001	-1.9596790E+000	0
5.747369854809076E+002	-1.1394738E-001	-1.9597234E+000	0
5.748801854772901E+002	-1.1499723E-001	-1.9597172E+000	0
5.750681854725408E+002	-1.1606617E-001	-1.9597172E+000	0
5.751491854704946E+002	-1.1499723E-001	-1.9597807E+000	0
5.751543854703632E+002	-1.1394738E-001	-1.9597425E+000	0
5.754389854631736E+002	-1.1495905E-001	-1.9597934E+000	0
5.755105854613648E+002	-1.1597074E-001	-1.9597362E+000	0
5.756759854571865E+002	-1.1495905E-001	-1.9596790E+000	0
5.761449854453385E+002	-1.1606617E-001	-1.9597362E+000	0
5.764089854386693E+002	-1.1501632E-001	-1.9597172E+000	0
5.768081854285847E+002	-1.1671518E-001	-1.9596726E+000	0
5.768957854263717E+002	-1.1772686E-001	-1.9597043E+000	0
5.768963854263566E+002	-1.1640976E-001	-1.9597616E+000	0
5.770193854232493E+002	-1.1747871E-001	-1.9597107E+000	0
5.772565854172572E+002	-1.1879580E-001	-1.9596852E+000	0
5.773001854161557E+002	-1.1988384E-001	-1.9596726E+000	0
5.773027854160900E+002	-1.1879580E-001	-1.9597425E+000	0
5.773031854160799E+002	-1.1776504E-001	-1.9597489E+000	0
5.773073854159738E+002	-1.1675335E-001	-1.9597234E+000	0
5.774817854115681E+002	-1.1558897E-001	-1.9598190E+000	0
5.774897854113660E+002	-1.1661974E-001	-1.9596790E+000	0
5.774941854112549E+002	-1.1558897E-001	-1.9596726E+000	0
5.775163854106941E+002	-1.1661974E-001	-1.9596280E+000	0
5.775349854102242E+002	-1.1560806E-001	-1.9597107E+000	0
5.775425854100322E+002	-1.1667700E-001	-1.9597553E+000	0
5.775541854097391E+002	-1.1562715E-001	-1.9597043E+000	0
5.775663854094310E+002	-1.1686788E-001	-1.9596981E+000	0
5.775839854089863E+002	-1.1581803E-001	-1.9597553E+000	0
5.775895854088449E+002	-1.1690606E-001	-1.9596981E+000	0
5.776311854077940E+002	-1.1793683E-001	-1.9597425E+000	0
5.777027854059852E+002	-1.1917757E-001	-1.9596981E+000	0
5.777329854052223E+002	-1.1801318E-001	-1.9597425E+000	0
5.777449854049191E+002	-1.1906304E-001	-1.9597362E+000	0
5.777475854048535E+002	-1.1805136E-001	-1.9597234E+000	0
5.777589854045655E+002	-1.1908213E-001	-1.9596280E+000	0
5.778295854027820E+002	-1.2009381E-001	-1.9597107E+000	0
5.778331854026910E+002	-1.1898669E-001	-1.9596343E+000	0
5.778841854014026E+002	-1.1787956E-001	-1.9596916E+000	0
5.779295854002557E+002	-1.1889125E-001	-1.9596981E+000	0
5.779343854001345E+002	-1.1782230E-001	-1.9597234E+000	0
5.779555853995989E+002	-1.1679153E-001	-1.9596790E+000	0
5.780151853980933E+002	-1.1782230E-001	-1.9596852E+000	0
5.781301853951882E+002	-1.1883398E-001	-1.9597298E+000	0
5.781697853941878E+002	-1.1763142E-001	-1.9597107E+000	0
5.782281853927125E+002	-1.1864310E-001	-1.9597425E+000	0
5.782653853917727E+002	-1.1759324E-001	-1.9597298E+000	0
5.784185853879026E+002	-1.1862401E-001	-1.9596981E+000	0
5.785233853852551E+002	-1.1747871E-001	-1.9596916E+000	0
5.785851853836939E+002	-1.1864310E-001	-1.9597172E+000	0
5.786171853828855E+002	-1.1755507E-001	-1.9597172E+000	0
5.786303853825520E+002	-1.1864310E-001	-1.9597298E+000	0
5.786467853821378E+002	-1.1745963E-001	-1.9597107E+000	0
5.786683853815921E+002	-1.1854766E-001	-1.9596981E+000	0
5.786887853810767E+002	-1.1751689E-001	-1.9597807E+000	0
5.788393853772723E+002	-1.1852857E-001	-1.9597107E+000	0
5.788961853758374E+002	-1.1747871E-001	-1.9596790E+000	0
5.789665853740589E+002	-1.1852857E-001	-1.9596790E+000	0
5.790469853720278E+002	-1.1751689E-001	-1.9596280E+000	0
5.791685853689560E+002	-1.1854766E-001	-1.9597553E+000	0
5.791823853686074E+002	-1.1753598E-001	-1.9596790E+000	0
5.793767853636964E+002	-1.1648612E-001	-1.9597681E+000	0
5.793889853633882E+002	-1.1749780E-001	-1.9597172E+000	0
5.794123853627971E+002	-1.1644794E-001	-1.9596916E+000	0
5.794445853619836E+002	-1.1747871E-001	-1.9597489E+000	0
5.794691853613622E+002	-1.1640976E-001	-1.9596790E+000	0
5.794957853606902E+002	-1.1747871E-001	-1.9597043E+000	0
5.795123853602709E+002	-1.1618070E-001	-1.9597489E+000	0
5.795471853593917E+002	-1.1726874E-001	-1.9597107E+000	0
5.795719853587652E+002	-1.1623797E-001	-1.9596790E+000	0
5.795975853581185E+002	-1.1728783E-001	-1.9597043E+000	0
5.796299853573000E+002	-1.1627614E-001	-1.9597362E+000	0
5.796479853568453E+002	-1.1732601E-001	-1.9597362E+000	0
5.796697853562946E+002	-1.1623797E-001	-1.9597362E+000	0
5.797047853554104E+002	-1.1734509E-001	-1.9597172E+000	0
5.797403853545111E+002	-1.1837586E-001	-1.9597425E+000	0
5.797523853542079E+002	-1.1938754E-001	-1.9597425E+000	0
5.797913853532227E+002	-1.1829951E-001	-1.9597553E+000	0
5.798039853529044E+002	-1.1938754E-001	-1.9597234E+000	0
5.798975853505399E+002	-1.2041831E-001	-1.9596981E+000	0
5.801319853446184E+002	-1.1938754E-001	-1.9596981E+000	0
5.802675853411929E+002	-1.2039922E-001	-1.9597172E+000	0
5.806241853321844E+002	-1.2144908E-001	-1.9597172E+000	0
5.809041853251110E+002	-1.2247985E-001	-1.9597172E+000	0
5.811263853194978E+002	-1.2349153E-001	-1.9597871E+000	0
5.811321853193513E+002	-1.2240350E-001	-1.9596661E+000	0
5.811537853188056E+002	-1.2135364E-001	-1.9597744E+000	0
5.812259853169817E+002	-1.2028469E-001	-1.9597298E+000	0
5.812747853157489E+002	-1.1927301E-001	-1.9597107E+000	0
5.812935853152740E+002	-1.2030378E-001	-1.9597234E+000	0
5.813105853148445E+002	-1.1894851E-001	-1.9597172E+000	0
5.813187853146374E+002	-1.1793683E-001	-1.9597234E+000	0
5.813449853139755E+002	-1.1896760E-001	-1.9597172E+000	0
5.813631853135157E+002	-1.1789865E-001	-1.9597298E+000	0
5.814129853122577E+002	-1.1892942E-001	-1.9597425E+000	0
5.814173853121465E+002	-1.1780322E-001	-1.9597043E+000	0
5.814549853111967E+002	-1.1883398E-001	-1.9597425E+000	0
5.814725853107520E+002	-1.1782230E-001	-1.9597362E+000	0
5.815137853097112E+002	-1.1887216E-001	-1.9597681E+000	0
5.815305853092868E+002	-1.1776504E-001	-1.9596916E+000	0
5.815727853082208E+002	-1.1879580E-001	-1.9597172E+000	0
5.816731853056845E+002	-1.1770777E-001	-1.9596852E+000	0
5.816875853053207E+002	-1.1892942E-001	-1.9596598E+000	0
5.817227853044315E+002	-1.1791774E-001	-1.9597043E+000	0
5.817427853039262E+002	-1.1902487E-001	-1.9597489E+000	0
5.817651853033603E+002	-1.1799409E-001	-1.9596916E+000	0
5.818087853022589E+002	-1.1900578E-001	-1.9597553E+000	0
5.818165853020619E+002	-1.1789865E-001	-1.9597234E+000	0
5.818629853008897E+002	-1.1892942E-001	-1.9597362E+000	0
5.818729853006371E+002	-1.1789865E-001	-1.9597172E+000	0
5.819177852995053E+002	-1.1891034E-001	-1.9596916E+000	0
5.819319852991466E+002	-1.1787956E-001	-1.9597807E+000	0
5.819709852981614E+002	-1.1889125E-001	-1.9597043E+000	0
5.819965852975147E+002	-1.1782230E-001	-1.9597172E+000	0
5.820253852967871E+002	-1.1898669E-001	-1.9596598E+000	0
5.821163852944883E+002	-1.1797500E-001	-1.9596598E+000	0
5.821413852938567E+002	-1.1925393E-001	-1.9597362E+000	0
5.821587852934172E+002	-1.1822315E-001	-1.9597489E+000	0
5.821987852924067E+002	-1.1925393E-001	-1.9597234E+000	0
5.822285852916539E+002	-1.1818498E-001	-1.9597107E+000	0
5.822499852911133E+002	-1.1955934E-001	-1.9596790E+000	0
5.822791852903756E+002	-1.1847130E-001	-1.9596726E+000	0
5.822923852900421E+002	-1.1975022E-001	-1.9597172E+000	0
5.823561852884304E+002	-1.1862401E-001	-1.9597362E+000	0
5.824353852864297E+002	-1.1761233E-001	-1.9597616E+000	0
5.825825852827111E+002	-1.1868127E-001	-1.9597425E+000	0
5.828829852751223E+002	-1.2003654E-001	-1.9596916E+000	0
5.829721852728690E+002	-1.2106732E-001	-1.9597043E+000	0
5.834553852606623E+002	-1.2209808E-001	-1.9597616E+000	0
5.836099852567568E+002	-1.2312885E-001	-1.9597553E+000	0
5.837165852540638E+002	-1.2417871E-001	-1.9597172E+000	0
5.841039852442773E+002	-1.2519038E-001	-1.9597234E+000	0
5.842409852408164E+002	-1.2620206E-001	-1.9597616E+000	0
5.843515852380224E+002	-1.2721375E-001	-1.9597172E+000	0
5.843927852369816E+002	-1.2618297E-001	-1.9596726E+000	0
5.844009852367744E+002	-1.2723283E-001	-1.9596916E+000	0
5.845797852322576E+002	-1.2824452E-001	-1.9597489E+000	0
5.847913852269121E+002	-1.2925619E-001	-1.9597553E+000	0
5.853451852129219E+002	-1.3026787E-001	-1.9597553E+000	0
5.854359852106281E+002	-1.3127956E-001	-1.9597553E+000	0
5.854835852094257E+002	-1.3229124E-001	-1.9597172E+000	0
5.855741852071369E+002	-1.3336018E-001	-1.9597425E+000	0
5.857481852027413E+002	-1.3437186E-001	-1.9597681E+000	0
5.859317851981032E+002	-1.3544081E-001	-1.9597298E+000	0
5.861217851933034E+002	-1.3649066E-001	-1.9597107E+000	0
5.862387851903477E+002	-1.3767414E-001	-1.9596726E+000	0
5.862961851888977E+002	-1.3874309E-001	-1.9597489E+000	0
5.864429851851892E+002	-1.3977385E-001	-1.9597298E+000	0
5.864525851849467E+002	-1.3876218E-001	-1.9597362E+000	0
5.865817851816828E+002	-1.3979293E-001	-1.9597489E+000	0
5.865983851812634E+002	-1.3876218E-001	-1.9597362E+000	0
5.866247851805965E+002	-1.3769323E-001	-1.9597362E+000	0
5.866273851805308E+002	-1.3881944E-001	-1.9597489E+000	0
5.866425851801469E+002	-1.3776958E-001	-1.9597043E+000	0
5.866753851793183E+002	-1.3878126E-001	-1.9597362E+000	0
5.867223851781309E+002	-1.3992655E-001	-1.9597489E+000	0
5.868857851740031E+002	-1.4099550E-001	-1.9598063E+000	0
5.868885851739324E+002	-1.3983111E-001	-1.9597172E+000	0
5.869303851728764E+002	-1.4091915E-001	-1.9597107E+000	0
5.869597851721337E+002	-1.3986929E-001	-1.9597234E+000	0
5.869833851715375E+002	-1.4088097E-001	-1.9597234E+000	0
5.869959851712192E+002	-1.3985020E-001	-1.9597362E+000	0
5.870037851710222E+002	-1.3874309E-001	-1.9596852E+000	0
5.870603851695923E+002	-1.3773140E-001	-1.9597234E+000	0
5.871499851673289E+002	-1.3874309E-001	-1.9596790E+000	0
5.874067851608415E+002	-1.3773140E-001	-1.9596852E+000	0
5.875659851568198E+002	-1.3881944E-001	-1.9597681E+000	0
5.877107851531619E+002	-1.3990746E-001	-1.9597362E+000	0
5.877241851528233E+002	-1.4093824E-001	-1.9597172E+000	0
5.878641851492866E+002	-1.4204536E-001	-1.9597172E+000	0
5.879255851477355E+002	-1.4103368E-001	-1.9597362E+000	0
5.880045851457398E+002	-1.4217898E-001	-1.9596852E+000	0
5.880109851455782E+002	-1.4109094E-001	-1.9597553E+000	0
5.880329851450224E+002	-1.4006017E-001	-1.9597107E+000	0
5.880753851439513E+002	-1.3893397E-001	-1.9597172E+000	0
5.880781851438805E+002	-1.3763596E-001	-1.9596726E+000	0
5.881103851430671E+002	-1.3662428E-001	-1.9597234E+000	0
5.882743851389241E+002	-1.3561261E-001	-1.9596852E+000	0
5.884631851341546E+002	-1.3458183E-001	-1.9597362E+000	0
5.885149851328461E+002	-1.3559352E-001	-1.9597553E+000	0
5.887789851261768E+002	-1.3456275E-001	-1.9597234E+000	0
5.889929851207708E+002	-1.3355106E-001	-1.9596471E+000	0
5.894905851082003E+002	-1.3456275E-001	-1.9597681E+000	0
5.896583851039613E+002	-1.3353197E-001	-1.9597744E+000	0
5.897635851013038E+002	-1.3232942E-001	-1.9597553E+000	0
5.900341850944678E+002	-1.3129865E-001	-1.9596981E+000	0
5.902863850880967E+002	-1.3265391E-001	-1.9596852E+000	0
5.903317850869498E+002	-1.3162315E-001	-1.9597043E+000	0
5.903395850867528E+002	-1.3263482E-001	-1.9597234E+000	0
5.904645850835950E+002	-1.3162315E-001	-1.9597172E+000	0
5.905277850819984E+002	-1.3265391E-001	-1.9596981E+000	0
5.906063850800128E+002	-1.3370377E-001	-1.9596852E+000	0
5.909499850713328E+002	-1.3267300E-001	-1.9597616E+000	0
5.909621850710246E+002	-1.3162315E-001	-1.9597298E+000	0
5.912083850648050E+002	-1.3263482E-001	-1.9597362E+000	0
5.925133850318380E+002	-1.3364650E-001	-1.9597489E+000	0
5.926415850285994E+002	-1.3467728E-001	-1.9597298E+000	0
5.926603850281244E+002	-1.3366559E-001	-1.9596726E+000	0
5.927571850256791E+002	-1.3467728E-001	-1.9597107E+000	0
5.943733849848504E+002	-1.3574623E-001	-1.9597489E+000	0
5.952775849620084E+002	-1.3675790E-001	-1.9597298E+000	0
5.956279849531566E+002	-1.3572714E-001	-1.9597616E+000	0
5.957153849509486E+002	-1.3467728E-001	-1.9596852E+000	0
5.959821849442087E+002	-1.3366559E-001	-1.9597172E+000	0
5.961913849389239E+002	-1.3263482E-001	-1.9596981E+000	0
5.964397849326488E+002	-1.3141318E-001	-1.9597807E+000	0
5.964807849316130E+002	-1.3040149E-001	-1.9597172E+000	0
5.971005849159556E+002	-1.2902713E-001	-1.9597362E+000	0
5.971311849151825E+002	-1.2793911E-001	-1.9597107E+000	0
5.972903849111608E+002	-1.2658383E-001	-1.9597425E+000	0
5.972989849109435E+002	-1.2557214E-001	-1.9596852E+000	0
5.975501849045977E+002	-1.2456048E-001	-1.9597172E+000	0
5.975817849037994E+002	-1.2559123E-001	-1.9597425E+000	0
5.978005848982721E+002	-1.2438868E-001	-1.9597362E+000	0
5.982645848865504E+002	-1.2540035E-001	-1.9597744E+000	0
5.982759848862624E+002	-1.2431233E-001	-1.9597043E+000	0
5.982819848861109E+002	-1.2328155E-001	-1.9596535E+000	0
5.983529848843173E+002	-1.2221261E-001	-1.9596790E+000	0
5.984233848825388E+002	-1.2322430E-001	-1.9597489E+000	0
5.984341848822660E+002	-1.2215535E-001	-1.9597362E+000	0
5.989145848701301E+002	-1.2318612E-001	-1.9597616E+000	0
5.990289848672401E+002	-1.2163996E-001	-1.9597681E+000	0
5.990895848657092E+002	-1.2059011E-001	-1.9597553E+000	0
5.996575848513603E+002	-1.2160178E-001	-1.9597234E+000	0
5.997507848490059E+002	-1.2265164E-001	-1.9597807E+000	0
6.000929848403612E+002	-1.2163996E-001	-1.9596916E+000	0
6.007297848242742E+002	-1.2272800E-001	-1.9597172E+000	0
6.008675848207931E+002	-1.2169722E-001	-1.9597425E+000	0
6.013511848085764E+002	-1.2274709E-001	-1.9597681E+000	0
6.014511848060502E+002	-1.2391147E-001	-1.9597107E+000	0
6.020943847898016E+002	-1.2492315E-001	-1.9596981E+000	0
6.021105847893923E+002	-1.2614480E-001	-1.9597043E+000	0
6.024813847800251E+002	-1.2511402E-001	-1.9596981E+000	0
6.027071847743209E+002	-1.2406418E-001	-1.9597234E+000	0
6.030371847659844E+002	-1.2511402E-001	-1.9597298E+000	0
6.031023847643373E+002	-1.2612571E-001	-1.9597107E+000	0
6.031047847642767E+002	-1.2503769E-001	-1.9597425E+000	0
6.036295847510191E+002	-1.2396874E-001	-1.9596535E+000	0
6.036733847499127E+002	-1.2268982E-001	-1.9597425E+000	0
6.036881847495388E+002	-1.2158269E-001	-1.9597425E+000	0
6.038449847455777E+002	-1.2259438E-001	-1.9597298E+000	0
6.039587847427028E+002	-1.2089552E-001	-1.9596726E+000	0
6.039709847423946E+002	-1.1986475E-001	-1.9597744E+000	0
6.045563847276062E+002	-1.1881489E-001	-1.9598063E+000	0
6.046273847258126E+002	-1.1990292E-001	-1.9597298E+000	0
6.047031847238977E+002	-1.2093370E-001	-1.9596916E+000	0
6.052451847102056E+002	-1.2198355E-001	-1.9597298E+000	0
6.057061846985598E+002	-1.2303341E-001	-1.9596726E+000	0
6.066993846734695E+002	-1.2408327E-001	-1.9597043E+000	0
6.068853846687707E+002	-1.2509494E-001	-1.9597172E+000	0
6.072325846599997E+002	-1.2610662E-001	-1.9596726E+000	0
6.073155846579029E+002	-1.2711830E-001	-1.9597362E+000	0
6.078889846434176E+002	-1.2606844E-001	-1.9597298E+000	0
6.079737846412754E+002	-1.2503769E-001	-1.9597998E+000	0
6.082151846351771E+002	-1.2604935E-001	-1.9597553E+000	0
6.083245846324135E+002	-1.2501860E-001	-1.9597362E+000	0
6.086127846251329E+002	-1.2398782E-001	-1.9597362E+000	0
6.086949846230564E+002	-1.2297615E-001	-1.9596790E+000	0
6.087415846218792E+002	-1.2179267E-001	-1.9597172E+000	0
6.087525846216013E+002	-1.2076190E-001	-1.9596852E+000	0
6.093059846076212E+002	-1.2177358E-001	-1.9597234E+000	0
6.094281846045342E+002	-1.2072372E-001	-1.9597107E+000	0
6.095305846019473E+002	-1.2173540E-001	-1.9597234E+000	0
6.097731845958187E+002	-1.2274709E-001	-1.9597107E+000	0
6.098639845935249E+002	-1.2379694E-001	-1.9597553E+000	0
6.100431845889980E+002	-1.2480862E-001	-1.9597234E+000	0
6.100877845878713E+002	-1.2582029E-001	-1.9596852E+000	0
6.101097845873155E+002	-1.2683198E-001	-1.9597107E+000	0
6.104491845787416E+002	-1.2799637E-001	-1.9597043E+000	0
6.105787845754676E+002	-1.2900804E-001	-1.9597298E+000	0
6.107293845716631E+002	-1.3038240E-001	-1.9597298E+000	0
6.108405845688540E+002	-1.3141318E-001	-1.9597107E+000	0
6.109609845658124E+002	-1.3242485E-001	-1.9597234E+000	0
6.109825845652667E+002	-1.3141318E-001	-1.9596407E+000	0
6.111805845602648E+002	-1.3022970E-001	-1.9597744E+000	0
6.116457845485129E+002	-1.2921801E-001	-1.9597298E+000	0
6.119693845403381E+002	-1.3036332E-001	-1.9597043E+000	0
6.121921845347097E+002	-1.3143227E-001	-1.9597425E+000	0
6.122183845340478E+002	-1.3024879E-001	-1.9596981E+000	0
6.127553845204820E+002	-1.3126047E-001	-1.9596981E+000	0
6.127753845199768E+002	-1.3024879E-001	-1.9596598E+000	0
6.128867845171626E+002	-1.3126047E-001	-1.9596852E+000	0
6.132567845078156E+002	-1.3231033E-001	-1.9597234E+000	0
6.135151845012879E+002	-1.3122229E-001	-1.9597043E+000	0
6.137467844954372E+002	-1.3231033E-001	-1.9597298E+000	0
6.138579844926280E+002	-1.3332200E-001	-1.9597172E+000	0
6.142085844837711E+002	-1.3481089E-001	-1.9596726E+000	0
6.147499844700942E+002	-1.3582258E-001	-1.9597425E+000	0
6.148525844675023E+002	-1.3471545E-001	-1.9597425E+000	0
6.151155844608584E+002	-1.3572714E-001	-1.9597362E+000	0
6.153027844561293E+002	-1.3442913E-001	-1.9597234E+000	0
6.156627844470349E+002	-1.3544081E-001	-1.9596790E+000	0
6.157589844446047E+002	-1.3418098E-001	-1.9597807E+000	0
6.158913844412600E+002	-1.3524993E-001	-1.9596790E+000	0
6.160225844379456E+002	-1.3631886E-001	-1.9597107E+000	0
6.161341844351264E+002	-1.3733055E-001	-1.9596726E+000	0
6.162823844313825E+002	-1.3631886E-001	-1.9597107E+000	0
6.164643844267848E+002	-1.3733055E-001	-1.9597489E+000	0
6.164877844261937E+002	-1.3838041E-001	-1.9597744E+000	0
6.166679844216414E+002	-1.3943027E-001	-1.9597298E+000	0
6.166741844214848E+002	-1.3841859E-001	-1.9597107E+000	0
6.168973844158463E+002	-1.3983111E-001	-1.9596981E+000	0
6.170143844128906E+002	-1.4088097E-001	-1.9597043E+000	0
6.172971844057465E+002	-1.4191175E-001	-1.9597234E+000	0
6.174069844029727E+002	-1.4292343E-001	-1.9597553E+000	0
6.176713843962934E+002	-1.4393510E-001	-1.9597362E+000	0
6.179313843897253E+002	-1.4256075E-001	-1.9596471E+000	0
6.179985843880277E+002	-1.4361060E-001	-1.9597489E+000	0
6.180243843873759E+002	-1.4250349E-001	-1.9597234E+000	0
6.181015843854257E+002	-1.4149180E-001	-1.9597172E+000	0
6.181577843840059E+002	-1.4042285E-001	-1.9597234E+000	0
6.181853843833087E+002	-1.4149180E-001	-1.9597107E+000	0
6.181903843831824E+002	-1.4046103E-001	-1.9596916E+000	0
6.182629843813484E+002	-1.4158724E-001	-1.9596471E+000	0
6.183159843800095E+002	-1.4259893E-001	-1.9597234E+000	0
6.187101843700511E+002	-1.4361060E-001	-1.9597234E+000	0
6.188359843668732E+002	-1.4462228E-001	-1.9596916E+000	0
6.191899843579304E+002	-1.4569123E-001	-1.9596981E+000	0
6.194913843503164E+002	-1.4672200E-001	-1.9596471E+000	0
6.198757843406056E+002	-1.4458410E-001	-1.9597172E+000	0
6.202353843315213E+002	-1.4569123E-001	-1.9597553E+000	0
6.203817843278230E+002	-1.4670292E-001	-1.9597298E+000	0
6.205653843231848E+002	-1.4771459E-001	-1.9596981E+000	0
6.206803843202797E+002	-1.4664565E-001	-1.9596852E+000	0
6.208781843152829E+002	-1.4769550E-001	-1.9597425E+000	0
6.209379843137722E+002	-1.4616844E-001	-1.9598128E+000	0
6.209389843137469E+002	-1.4506131E-001	-1.9597362E+000	0
6.216233842964575E+002	-1.4609209E-001	-1.9597298E+000	0
6.218941842896165E+002	-1.4494678E-001	-1.9597043E+000	0
6.219391842884797E+002	-1.4391601E-001	-1.9597425E+000	0
6.219487842882372E+002	-1.4288525E-001	-1.9597172E+000	0
6.223275842786679E+002	-1.4185448E-001	-1.9597553E+000	0
6.223855842772027E+002	-1.4021288E-001	-1.9597744E+000	0
6.223969842769147E+002	-1.3916303E-001	-1.9596535E+000	0
6.228493842654862E+002	-1.3790320E-001	-1.9597234E+000	0
6.228501842654659E+002	-1.3685334E-001	-1.9597234E+000	0
6.234041842514707E+002	-1.3788411E-001	-1.9597043E+000	0
6.237185842435283E+002	-1.3891488E-001	-1.9597362E+000	0
6.239235842383496E+002	-1.3782685E-001	-1.9596916E+000	0
6.241027842338226E+002	-1.3889579E-001	-1.9597425E+000	0
6.241841842317663E+002	-1.3996473E-001	-1.9597172E+000	0
6.243407842278102E+002	-1.4101459E-001	-1.9597425E+000	0
6.245437842226820E+002	-1.4202628E-001	-1.9597616E+000	0
6.252781842041295E+002	-1.4305705E-001	-1.9597362E+000	0
6.253557842021692E+002	-1.4406872E-001	-1.9597298E+000	0
6.254883841988194E+002	-1.4508040E-001	-1.9596852E+000	0
6.255383841975563E+002	-1.4401145E-001	-1.9597043E+000	0
6.258741841890733E+002	-1.4214081E-001	-1.9597298E+000	0
6.258745841890632E+002	-1.4111003E-001	-1.9597362E+000	0
6.258839841888257E+002	-1.4007926E-001	-1.9597234E+000	0
6.259351841875323E+002	-1.3906759E-001	-1.9597362E+000	0
6.263887841760734E+002	-1.4009835E-001	-1.9597172E+000	0
6.267705841664283E+002	-1.4139636E-001	-1.9597553E+000	0
6.270205841601128E+002	-1.4246531E-001	-1.9597107E+000	0
6.270777841586678E+002	-1.4141545E-001	-1.9597107E+000	0
6.274133841501898E+002	-1.4257984E-001	-1.9597234E+000	0
6.275065841478354E+002	-1.4359151E-001	-1.9597425E+000	0
6.277167841425253E+002	-1.4460319E-001	-1.9596852E+000	0
6.280169841349416E+002	-1.4561488E-001	-1.9596981E+000	0
6.283067841276206E+002	-1.4662656E-001	-1.9597234E+000	0
6.283465841266152E+002	-1.4763823E-001	-1.9597234E+000	0
6.284703841234877E+002	-1.4658839E-001	-1.9596661E+000	0
6.286981841177330E+002	-1.4760005E-001	-1.9597043E+000	0
6.287325841168640E+002	-1.4653112E-001	-1.9597172E+000	0
6.290911841078050E+002	-1.4756188E-001	-1.9597616E+000	0
6.295753840955731E+002	-1.4857356E-001	-1.9597362E+000	0
6.296681840932288E+002	-1.4754279E-001	-1.9596981E+000	0
6.297389840914402E+002	-1.4857356E-001	-1.9597425E+000	0
6.301513840810221E+002	-1.4958525E-001	-1.9597043E+000	0
6.302053840796580E+002	-1.5059692E-001	-1.9596981E+000	0
6.304131840744085E+002	-1.5160860E-001	-1.9598190E+000	0
6.305039840721147E+002	-1.5263937E-001	-1.9597234E+000	0
6.305813840701594E+002	-1.5158951E-001	-1.9597172E+000	0
6.306925840673503E+002	-1.5029152E-001	-1.9596981E+000	0
6.309165840616915E+002	-1.5132228E-001	-1.9597744E+000	0
6.312091840542998E+002	-1.5254393E-001	-1.9596726E+000	0
6.312325840537087E+002	-1.5355562E-001	-1.9597425E+000	0
6.313703840502276E+002	-1.5227669E-001	-1.9597425E+000	0
6.314603840479540E+002	-1.5086415E-001	-1.9597998E+000	0
6.314605840479489E+002	-1.4969978E-001	-1.9597425E+000	0
6.314871840472770E+002	-1.4849721E-001	-1.9597298E+000	0
6.317745840400166E+002	-1.4748552E-001	-1.9597425E+000	0
6.319265840361768E+002	-1.4819179E-001	-1.9597489E+000	0