time/s	Ewe/V	I/mA	error	
8.020579797383107E+001	3.1466905E-002	-1.9473360E-001	0
8.020599797382602E+001	2.4571380E-002	-1.9597104E-001	0
8.020619797382096E+001	2.1415258E-002	-1.9598058E-001	0
8.020639797381591E+001	1.9868959E-002	-1.9598375E-001	0
8.020659797381086E+001	1.8704461E-002	-1.9597802E-001	0
8.020699797380075E+001	1.7158160E-002	-1.9597486E-001	0
8.020739797379065E+001	1.5745491E-002	-1.9598058E-001	0
8.020779797378054E+001	1.4485543E-002	-1.9598249E-001	0
8.020819797377044E+001	1.3378315E-002	-1.9597550E-001	0
8.020859797376033E+001	1.2022916E-002	-1.9597867E-001	0
8.020919797374518E+001	1.0591157E-002	-1.9597676E-001	0
8.020959797373507E+001	9.5221093E-003	-1.9597994E-001	0
8.021019797371991E+001	7.9758093E-003	-1.9597802E-001	0
8.021079797370476E+001	6.6776802E-003	-1.9598185E-001	0
8.021119797369465E+001	5.6659034E-003	-1.9598503E-001	0
8.021179797367950E+001	4.4250456E-003	-1.9598313E-001	0
8.021239797366434E+001	2.8978351E-003	-1.9598185E-001	0
8.021299797364918E+001	1.6569769E-003	-1.9598122E-001	0
8.021359797363402E+001	4.7338897E-004	-1.9598313E-001	0
8.021419797361887E+001	-8.4382971E-004	-1.9598122E-001	0
8.021479797360371E+001	-2.0274175E-003	-1.9597994E-001	0
8.021539797358855E+001	-3.2110054E-003	-1.9598185E-001	0
8.021599797357339E+001	-4.4709537E-003	-1.9598439E-001	0
8.021659797355824E+001	-5.5972710E-003	-1.9598185E-001	0
8.021719797354308E+001	-6.6854083E-003	-1.9598439E-001	0
8.021779797352792E+001	-7.9835365E-003	-1.9597802E-001	0
8.021839797351277E+001	-9.0907635E-003	-1.9598058E-001	0
8.021919797349256E+001	-1.0427073E-002	-1.9598375E-001	0
8.021979797347740E+001	-1.1534300E-002	-1.9598439E-001	0
8.022059797345719E+001	-1.2946970E-002	-1.9597867E-001	0
8.022119797344203E+001	-1.3977836E-002	-1.9597611E-001	0
8.022179797342687E+001	-1.5123243E-002	-1.9598122E-001	0
8.022259797340666E+001	-1.6440462E-002	-1.9598249E-001	0
8.022339797338645E+001	-1.7681321E-002	-1.9598313E-001	0
8.022419797336624E+001	-1.9132171E-002	-1.9598185E-001	0
8.022499797334604E+001	-2.0392118E-002	-1.9597867E-001	0
8.022579797332583E+001	-2.1537526E-002	-1.9598757E-001	0
8.022639797331067E+001	-2.2568393E-002	-1.9598185E-001	0
8.022719797329046E+001	-2.3828341E-002	-1.9598058E-001	0
8.022799797327025E+001	-2.4859209E-002	-1.9598566E-001	0
8.022859797325509E+001	-2.5890075E-002	-1.9597994E-001	0
8.022939797323488E+001	-2.7130933E-002	-1.9597867E-001	0
8.023019797321467E+001	-2.8295431E-002	-1.9598821E-001	0
8.023099797319446E+001	-2.9536288E-002	-1.9598122E-001	0
8.023179797317425E+001	-3.0605337E-002	-1.9598313E-001	0
8.023259797315404E+001	-3.1846192E-002	-1.9597931E-001	0
8.023339797313383E+001	-3.2896150E-002	-1.9597802E-001	0
8.023419797311362E+001	-3.3907928E-002	-1.9597994E-001	0
8.023499797309341E+001	-3.5091516E-002	-1.9599077E-001	0
8.023599797306815E+001	-3.6294192E-002	-1.9598503E-001	0
8.023679797304794E+001	-3.7515961E-002	-1.9597867E-001	0
8.023779797302268E+001	-3.8642280E-002	-1.9598375E-001	0
8.023859797300247E+001	-3.9730415E-002	-1.9598058E-001	0
8.023939797298226E+001	-4.0799461E-002	-1.9598058E-001	0
8.024019797296205E+001	-4.1830331E-002	-1.9598122E-001	0
8.024119797293679E+001	-4.2956647E-002	-1.9598503E-001	0
8.024199797291658E+001	-4.4025693E-002	-1.9598630E-001	0
8.024299797289132E+001	-4.5075651E-002	-1.9598566E-001	0
8.024399797286605E+001	-4.6259239E-002	-1.9598503E-001	0
8.024479797284584E+001	-4.7309197E-002	-1.9598058E-001	0
8.024579797282058E+001	-4.8320971E-002	-1.9597994E-001	0
8.024679797279532E+001	-4.9428198E-002	-1.9598313E-001	0
8.024779797277006E+001	-5.0516337E-002	-1.9597867E-001	0
8.024879797274480E+001	-5.1661745E-002	-1.9598566E-001	0
8.024979797271953E+001	-5.2673522E-002	-1.9598313E-001	0
8.025079797269427E+001	-5.3818930E-002	-1.9597994E-001	0
8.025199797266396E+001	-5.4926157E-002	-1.9598122E-001	0
8.025299797263870E+001	-5.6014292E-002	-1.9598185E-001	0
8.025399797261343E+001	-5.7026070E-002	-1.9598503E-001	0
8.025499797258817E+001	-5.8037847E-002	-1.9598503E-001	0
8.025619797255786E+001	-5.9145074E-002	-1.9598503E-001	0
8.025719797253259E+001	-6.0233213E-002	-1.9597994E-001	0
8.025859797249723E+001	-6.1283167E-002	-1.9598058E-001	0
8.025959797247197E+001	-6.2352214E-002	-1.9598439E-001	0
8.026099797243660E+001	-6.3554890E-002	-1.9598185E-001	0
8.026219797240628E+001	-6.4585760E-002	-1.9597676E-001	0
8.026339797237597E+001	-6.5635718E-002	-1.9597740E-001	0
8.026479797234060E+001	-6.6800214E-002	-1.9598185E-001	0
8.026599797231029E+001	-6.7811988E-002	-1.9597994E-001	0
8.026719797227997E+001	-6.8823770E-002	-1.9598122E-001	0
8.026879797223955E+001	-6.9892816E-002	-1.9598249E-001	0
8.026999797220924E+001	-7.1000040E-002	-1.9597740E-001	0
8.027139797217387E+001	-7.2011821E-002	-1.9598375E-001	0
8.027279797213851E+001	-7.3042683E-002	-1.9598694E-001	0
8.027439797209809E+001	-7.4073553E-002	-1.9598058E-001	0
8.027579797206272E+001	-7.5085327E-002	-1.9598185E-001	0
8.027719797202735E+001	-7.6116197E-002	-1.9598249E-001	0
8.027879797198693E+001	-7.7127971E-002	-1.9598185E-001	0
8.028039797194651E+001	-7.8254290E-002	-1.9598185E-001	0
8.028199797190609E+001	-7.9266064E-002	-1.9598122E-001	0
8.028359797186567E+001	-8.0277845E-002	-1.9598249E-001	0
8.028539797182020E+001	-8.1327796E-002	-1.9597740E-001	0
8.028719797177473E+001	-8.2358666E-002	-1.9597802E-001	0
8.028879797173431E+001	-8.3370440E-002	-1.9598375E-001	0
8.029099797167873E+001	-8.4496759E-002	-1.9598630E-001	0
8.029299797162821E+001	-8.5623078E-002	-1.9597931E-001	0
8.029519797157263E+001	-8.6749397E-002	-1.9597994E-001	0
8.029719797152211E+001	-8.7780260E-002	-1.9597802E-001	0
8.029939797146653E+001	-8.8792041E-002	-1.9598058E-001	0
8.030179797140590E+001	-8.9841999E-002	-1.9598375E-001	0
8.030379797135538E+001	-9.0853773E-002	-1.9598886E-001	0
8.030619797129475E+001	-9.1884635E-002	-1.9597295E-001	0
8.030859797123412E+001	-9.2934594E-002	-1.9598185E-001	0
8.031079797117854E+001	-9.3946375E-002	-1.9598058E-001	0
8.031359797110781E+001	-9.5034510E-002	-1.9598375E-001	0
8.031639797103708E+001	-9.6160829E-002	-1.9598439E-001	0
8.031939797096129E+001	-9.7287148E-002	-1.9598375E-001	0
8.032239797088550E+001	-9.8318011E-002	-1.9598503E-001	0
8.032559797080467E+001	-9.9444330E-002	-1.9597867E-001	0
8.032879797072383E+001	-1.0055155E-001	-1.9597994E-001	0
8.033219797063794E+001	-1.0165878E-001	-1.9597994E-001	0
8.033579797054699E+001	-1.0278510E-001	-1.9597867E-001	0
8.033979797044594E+001	-1.0385415E-001	-1.9598122E-001	0
8.034299797036510E+001	-1.0488501E-001	-1.9597994E-001	0
8.034699797026406E+001	-1.0593497E-001	-1.9597867E-001	0
8.035099797016301E+001	-1.0700402E-001	-1.9598503E-001	0
8.035559797004680E+001	-1.0805397E-001	-1.9598058E-001	0
8.035979796994070E+001	-1.0918029E-001	-1.9598503E-001	0
8.036459796981944E+001	-1.1024934E-001	-1.9598185E-001	0
8.036959796969313E+001	-1.1129930E-001	-1.9597611E-001	0
8.037499796955672E+001	-1.1234926E-001	-1.9598375E-001	0
8.037999796943041E+001	-1.1341830E-001	-1.9598630E-001	0
8.038559796928894E+001	-1.1444917E-001	-1.9598122E-001	0
8.039099796915252E+001	-1.1549912E-001	-1.9598122E-001	0
8.039699796900095E+001	-1.1654908E-001	-1.9598058E-001	0
8.040299796884938E+001	-1.1756086E-001	-1.9598886E-001	0
8.040959796868265E+001	-1.1866809E-001	-1.9598375E-001	0
8.041679796850076E+001	-1.1969896E-001	-1.9598185E-001	0
8.042339796833403E+001	-1.2076800E-001	-1.9598058E-001	0
8.043139796813193E+001	-1.2181795E-001	-1.9598313E-001	0
8.043919796793489E+001	-1.2290610E-001	-1.9597931E-001	0
8.044699796773784E+001	-1.2399423E-001	-1.9598439E-001	0
8.045619796750543E+001	-1.2500601E-001	-1.9598058E-001	0
8.046459796729323E+001	-1.2601778E-001	-1.9598185E-001	0
8.047319796707598E+001	-1.2702955E-001	-1.9598185E-001	0
8.048319796682335E+001	-1.2807952E-001	-1.9597867E-001	0
8.049319796657073E+001	-1.2912947E-001	-1.9598566E-001	0
8.050419796629285E+001	-1.3019852E-001	-1.9598249E-001	0
8.051519796601497E+001	-1.3124847E-001	-1.9598313E-001	0
8.052619796573708E+001	-1.3226025E-001	-1.9597486E-001	0
8.053719796545920E+001	-1.3327202E-001	-1.9598821E-001	0
8.054939796515100E+001	-1.3434108E-001	-1.9597931E-001	0
8.056199796483270E+001	-1.3539103E-001	-1.9597994E-001	0
8.057459796451440E+001	-1.3646008E-001	-1.9598375E-001	0
8.058819796417083E+001	-1.3751003E-001	-1.9598439E-001	0
8.060419796376664E+001	-1.3859817E-001	-1.9598122E-001	0
8.061779796342307E+001	-1.3964812E-001	-1.9597931E-001	0
8.063379796301888E+001	-1.4067900E-001	-1.9598566E-001	0
8.064959796261974E+001	-1.4169078E-001	-1.9598503E-001	0
8.066619796220039E+001	-1.4270255E-001	-1.9598185E-001	0
8.068279796178103E+001	-1.4371432E-001	-1.9598058E-001	0
8.069999796134653E+001	-1.4474520E-001	-1.9598375E-001	0
8.071839796088170E+001	-1.4585242E-001	-1.9598185E-001	0
8.073939796035120E+001	-1.4688329E-001	-1.9598439E-001	0
8.075839795987122E+001	-1.4789507E-001	-1.9598249E-001	0
8.078159795928514E+001	-1.4894502E-001	-1.9598439E-001	0
8.080379795872432E+001	-1.5001407E-001	-1.9598249E-001	0
8.082899795808771E+001	-1.5106402E-001	-1.9597931E-001	0
8.085319795747637E+001	-1.5209490E-001	-1.9598058E-001	0
8.088179795675387E+001	-1.5312576E-001	-1.9598058E-001	0
8.091239795598085E+001	-1.5415663E-001	-1.9598503E-001	0
8.094499795515731E+001	-1.5518749E-001	-1.9597867E-001	0
8.098339795418724E+001	-1.5619928E-001	-1.9598439E-001	0
8.103019795300497E+001	-1.5721105E-001	-1.9598503E-001	0
8.109299795141851E+001	-1.5824191E-001	-1.9598375E-001	0
8.135699794474931E+001	-1.5723014E-001	-1.9597611E-001	0
8.141139794337505E+001	-1.5619928E-001	-1.9598185E-001	0
8.146139794211194E+001	-1.5518749E-001	-1.9598185E-001	0
8.150779794093978E+001	-1.5415663E-001	-1.9597994E-001	0
8.155019793986867E+001	-1.5312576E-001	-1.9598185E-001	0
8.159659793869650E+001	-1.5211399E-001	-1.9598821E-001	0
8.163479793773149E+001	-1.5104493E-001	-1.9598313E-001	0
8.168399793648859E+001	-1.4997590E-001	-1.9597740E-001	0
8.172939793534169E+001	-1.4896411E-001	-1.9598886E-001	0
8.177579793416953E+001	-1.4795233E-001	-1.9598249E-001	0
8.182319793297211E+001	-1.4694056E-001	-1.9597994E-001	0
8.186759793185047E+001	-1.4592879E-001	-1.9598630E-001	0
8.191579793063283E+001	-1.4491701E-001	-1.9597676E-001	0
8.197559792912216E+001	-1.4390524E-001	-1.9598185E-001	0
8.203299792767211E+001	-1.4287436E-001	-1.9598757E-001	0
8.210359792588861E+001	-1.4176713E-001	-1.9598375E-001	0
8.217519792407984E+001	-1.4065991E-001	-1.9598058E-001	0
8.225159792214981E+001	-1.3960995E-001	-1.9598821E-001	0
8.233459792005306E+001	-1.3856000E-001	-1.9598313E-001	0
8.243299791756726E+001	-1.3754822E-001	-1.9598503E-001	0
8.253199791506631E+001	-1.3649826E-001	-1.9597802E-001	0
8.264279791226727E+001	-1.3548648E-001	-1.9598439E-001	0
8.277099790902867E+001	-1.3443653E-001	-1.9598185E-001	0
8.291019790551218E+001	-1.3340566E-001	-1.9598058E-001	0
8.307159790143487E+001	-1.3237479E-001	-1.9598375E-001	0
8.327279789635213E+001	-1.3134393E-001	-1.9597676E-001	0
8.349779789066815E+001	-1.3033216E-001	-1.9597994E-001	0
8.376559788390296E+001	-1.2930128E-001	-1.9598694E-001	0
8.410539787531889E+001	-1.2828951E-001	-1.9598058E-001	0
8.448739786566875E+001	-1.2727773E-001	-1.9598439E-001	0
8.499819785276486E+001	-1.2626596E-001	-1.9598630E-001	0
8.562379783696088E+001	-1.2525417E-001	-1.9598185E-001	0
8.657259781299217E+001	-1.2424240E-001	-1.9598249E-001	0
8.786499778034340E+001	-1.2323063E-001	-1.9597931E-001	0
8.996299772734346E+001	-1.2221885E-001	-1.9598503E-001	0
9.408939762310183E+001	-1.2120707E-001	-1.9598757E-001	0
1.040893973704806E+002	-1.2069164E-001	-1.9598694E-001	0
1.140893971178593E+002	-1.2036711E-001	-1.9598439E-001	0
1.240893968652381E+002	-1.2029075E-001	-1.9598439E-001	0
1.340893966126168E+002	-1.2006167E-001	-1.9598058E-001	0
1.440893963599956E+002	-1.1967986E-001	-1.9597994E-001	0
1.540893961073743E+002	-1.1945079E-001	-1.9598439E-001	0
1.640893958547531E+002	-1.1910716E-001	-1.9598249E-001	0
1.740893956021318E+002	-1.1868718E-001	-1.9598757E-001	0
1.840893953495106E+002	-1.1815266E-001	-1.9598757E-001	0
1.940893950968893E+002	-1.1754177E-001	-1.9598375E-001	0
2.040893948442681E+002	-1.1725542E-001	-1.9599202E-001	0
2.140893945916469E+002	-1.1660635E-001	-1.9598630E-001	0
2.240893943390256E+002	-1.1612910E-001	-1.9598249E-001	0
2.340893940864044E+002	-1.1540367E-001	-1.9598886E-001	0
2.440893938337831E+002	-1.1494551E-001	-1.9598821E-001	0
2.540893935811619E+002	-1.1444917E-001	-1.9598947E-001	0
2.640893933285406E+002	-1.1372374E-001	-1.9598503E-001	0
2.740893930759194E+002	-1.1315104E-001	-1.9598058E-001	0
2.840893928232981E+002	-1.1259743E-001	-1.9598886E-001	0
2.940893925706769E+002	-1.1213926E-001	-1.9599329E-001	0
3.040893923180556E+002	-1.1179564E-001	-1.9598757E-001	0
3.140893920654344E+002	-1.1103204E-001	-1.9598375E-001	0
3.240893918128131E+002	-1.1063115E-001	-1.9599202E-001	0
3.340893915601919E+002	-1.1026843E-001	-1.9597931E-001	0
3.440893913075706E+002	-1.0975300E-001	-1.9598249E-001	0
3.540893910549494E+002	-1.0927574E-001	-1.9598630E-001	0
3.640893908023281E+002	-1.0885576E-001	-1.9598375E-001	0
3.740893905497069E+002	-1.0847396E-001	-1.9599012E-001	0
3.840893902970856E+002	-1.0809216E-001	-1.9598375E-001	0
3.940893900444644E+002	-1.0769127E-001	-1.9598886E-001	0
4.040893897918431E+002	-1.0742400E-001	-1.9599077E-001	0
4.140893895392219E+002	-1.0702311E-001	-1.9598630E-001	0
4.240893892866006E+002	-1.0660312E-001	-1.9598503E-001	0
4.340893890339794E+002	-1.0629769E-001	-1.9598249E-001	0
4.440893887813581E+002	-1.0597315E-001	-1.9598249E-001	0
4.540893885287369E+002	-1.0566771E-001	-1.9598886E-001	0
4.640893882761156E+002	-1.0536227E-001	-1.9598630E-001	0
4.740893880234944E+002	-1.0509501E-001	-1.9598375E-001	0
4.840893877708731E+002	-1.0492320E-001	-1.9597994E-001	0
4.940893875182519E+002	-1.0465594E-001	-1.9598249E-001	0
5.040893872656306E+002	-1.0433140E-001	-1.9597994E-001	0
5.140893870130094E+002	-1.0400687E-001	-1.9599012E-001	0
5.240893867603882E+002	-1.0377779E-001	-1.9598249E-001	0
5.340893865077669E+002	-1.0362507E-001	-1.9598249E-001	0
5.440893862551457E+002	-1.0324326E-001	-1.9598122E-001	0
5.540893860025244E+002	-1.0309054E-001	-1.9598058E-001	0
5.640893857499032E+002	-1.0288055E-001	-1.9598439E-001	0
5.740893854972819E+002	-1.0255602E-001	-1.9598439E-001	0
5.840893852446607E+002	-1.0247966E-001	-1.9598566E-001	0
5.940893849920394E+002	-1.0223149E-001	-1.9598757E-001	0
6.040893847394182E+002	-1.0192604E-001	-1.9598821E-001	0
6.140893844867969E+002	-1.0175423E-001	-1.9598566E-001	0
6.240893842341757E+002	-1.0144879E-001	-1.9598503E-001	0
6.340893839815544E+002	-1.0142970E-001	-1.9598375E-001	0
6.440893837289332E+002	-1.0114335E-001	-1.9598313E-001	0
6.540893834763119E+002	-1.0097154E-001	-1.9598630E-001	0
6.640893832236907E+002	-1.0097154E-001	-1.9598566E-001	0
6.740893829710694E+002	-1.0062791E-001	-1.9598694E-001	0
6.840893827184482E+002	-1.0043702E-001	-1.9598694E-001	0
6.940893824658269E+002	-1.0032248E-001	-1.9598503E-001	0
7.040893822132057E+002	-1.0020793E-001	-1.9598122E-001	0
7.140893819605844E+002	-9.9902496E-002	-1.9598886E-001	0
7.240893817079632E+002	-9.9730678E-002	-1.9598947E-001	0
7.340893814553419E+002	-9.9577963E-002	-1.9598694E-001	0
7.440893812027207E+002	-9.9501602E-002	-1.9598630E-001	0
7.540893809500994E+002	-9.9272519E-002	-1.9598375E-001	0
7.640893806974782E+002	-9.9081613E-002	-1.9598886E-001	0
7.740893804448569E+002	-9.8928899E-002	-1.9598757E-001	0
7.840893801922357E+002	-9.8833442E-002	-1.9598566E-001	0
7.940893799396144E+002	-9.8680727E-002	-1.9598375E-001	0
8.040893796869932E+002	-9.8413460E-002	-1.9598630E-001	0
8.140893794343719E+002	-9.8356195E-002	-1.9598375E-001	0
8.240893791817507E+002	-9.8088928E-002	-1.9598886E-001	0
8.340893789291295E+002	-9.8184384E-002	-1.9598694E-001	0
8.440893786765082E+002	-9.7878940E-002	-1.9598503E-001	0
8.540893784238870E+002	-9.7802579E-002	-1.9598757E-001	0
8.640893781712657E+002	-9.7707130E-002	-1.9598566E-001	0
8.740893779186445E+002	-9.7535320E-002	-1.9598375E-001	0
8.840893776660232E+002	-9.7382598E-002	-1.9598375E-001	0
8.940893774134020E+002	-9.7268052E-002	-1.9598757E-001	0
9.040893771607807E+002	-9.7210787E-002	-1.9598503E-001	0
9.140893769081595E+002	-9.6962616E-002	-1.9598630E-001	0
9.240893766555382E+002	-9.6867159E-002	-1.9598249E-001	0
9.340893764029170E+002	-9.6848071E-002	-1.9598249E-001	0
9.440893761502957E+002	-9.6599899E-002	-1.9598566E-001	0
9.540893758976745E+002	-9.6638083E-002	-1.9598757E-001	0
9.640893756450532E+002	-9.6428089E-002	-1.9598947E-001	0
9.740893753924320E+002	-9.6313551E-002	-1.9598122E-001	0
9.840893751398107E+002	-9.6199006E-002	-1.9598503E-001	0
9.940893748871895E+002	-9.5989019E-002	-1.9597994E-001	0
1.004089374634568E+003	-9.5817208E-002	-1.9598503E-001	0
1.014089374381947E+003	-9.5759936E-002	-1.9598313E-001	0
1.024089374129326E+003	-9.5740847E-002	-1.9598503E-001	0
1.034089373876704E+003	-9.5549941E-002	-1.9598886E-001	0
1.044089373624083E+003	-9.5435403E-002	-1.9598375E-001	0
1.054089373371462E+003	-9.5301770E-002	-1.9598694E-001	0
1.064089373118841E+003	-9.5282681E-002	-1.9598947E-001	0
1.074089372866219E+003	-9.4996333E-002	-1.9598947E-001	0
1.084089372613598E+003	-9.5072687E-002	-1.9598821E-001	0
1.094089372360977E+003	-9.4805427E-002	-1.9598375E-001	0
1.104089372108356E+003	-9.4805427E-002	-1.9598503E-001	0
1.114089371855735E+003	-9.4767250E-002	-1.9598947E-001	0
1.124089371603113E+003	-9.4729066E-002	-1.9598694E-001	0
1.134089371350492E+003	-9.4499983E-002	-1.9598757E-001	0
1.144089371097871E+003	-9.4366357E-002	-1.9598375E-001	0
1.154089370845250E+003	-9.4213635E-002	-1.9598313E-001	0
1.164089370592628E+003	-9.4137274E-002	-1.9598821E-001	0
1.174089370340007E+003	-9.4003640E-002	-1.9598249E-001	0
1.184089370087386E+003	-9.3870014E-002	-1.9598249E-001	0
1.194089369834765E+003	-9.3908191E-002	-1.9598503E-001	0
1.204089369582143E+003	-9.3660019E-002	-1.9598630E-001	0
1.214089369329522E+003	-9.3526393E-002	-1.9598439E-001	0
1.224089369076901E+003	-9.3564570E-002	-1.9598122E-001	0
1.234089368824280E+003	-9.3430936E-002	-1.9598249E-001	0
1.244089368571658E+003	-9.3335487E-002	-1.9597611E-001	0
1.254089368319037E+003	-9.3373671E-002	-1.9598947E-001	0
1.264089368066416E+003	-9.3259126E-002	-1.9598630E-001	0
1.274089367813795E+003	-9.3144588E-002	-1.9598185E-001	0
1.284089367561173E+003	-9.2858233E-002	-1.9598630E-001	0
1.294089367308552E+003	-9.2858233E-002	-1.9598249E-001	0
1.304089367055931E+003	-9.2781872E-002	-1.9598375E-001	0
1.314089366803310E+003	-9.2686422E-002	-1.9598313E-001	0
1.324089366550688E+003	-9.2590973E-002	-1.9597867E-001	0
1.334089366298067E+003	-9.2380986E-002	-1.9597740E-001	0
1.344089366045446E+003	-9.2400074E-002	-1.9597802E-001	0
1.354089365792825E+003	-9.2228264E-002	-1.9598821E-001	0
1.364089365540203E+003	-9.2132814E-002	-1.9598122E-001	0
1.374089365287582E+003	-9.2285529E-002	-1.9598375E-001	0
1.384089365034961E+003	-9.1980092E-002	-1.9598821E-001	0
1.394089364782340E+003	-9.1846459E-002	-1.9597867E-001	0
1.404089364529718E+003	-9.1827370E-002	-1.9598375E-001	0
1.414089364277097E+003	-9.1731921E-002	-1.9598249E-001	0
1.424089364024476E+003	-9.1521926E-002	-1.9599012E-001	0
1.434089363771855E+003	-9.1598287E-002	-1.9598630E-001	0
1.444089363519233E+003	-9.1521926E-002	-1.9598566E-001	0
1.454089363266612E+003	-9.1254666E-002	-1.9598375E-001	0
1.464089363013991E+003	-9.1292843E-002	-1.9598058E-001	0
1.474089362761370E+003	-9.1082856E-002	-1.9598313E-001	0
1.484089362508748E+003	-9.1025583E-002	-1.9598566E-001	0
1.494089362256127E+003	-9.0968311E-002	-1.9598757E-001	0
1.504089362003506E+003	-9.0949222E-002	-1.9598249E-001	0
1.514089361750885E+003	-9.0815589E-002	-1.9599393E-001	0
1.524089361498263E+003	-9.0815589E-002	-1.9597931E-001	0
1.534089361245642E+003	-9.0605602E-002	-1.9598694E-001	0
1.544089360993021E+003	-9.0548329E-002	-1.9597740E-001	0
1.554089360740400E+003	-9.0529241E-002	-1.9598313E-001	0
1.564089360487778E+003	-9.0395607E-002	-1.9598313E-001	0
1.574089360235157E+003	-9.0338342E-002	-1.9598566E-001	0
1.584089359982536E+003	-9.0147436E-002	-1.9598757E-001	0
1.594089359729915E+003	-9.0128347E-002	-1.9598439E-001	0
1.604089359477293E+003	-9.0109259E-002	-1.9598630E-001	0
1.614089359224672E+003	-8.9841999E-002	-1.9598757E-001	0
1.624089358972051E+003	-8.9975625E-002	-1.9598249E-001	0
1.634089358719430E+003	-8.9765638E-002	-1.9598439E-001	0
1.644089358466808E+003	-8.9727454E-002	-1.9598757E-001	0
1.654089358214187E+003	-8.9479282E-002	-1.9599138E-001	0
1.664089357961566E+003	-8.9536555E-002	-1.9598694E-001	0
1.674089357708945E+003	-8.9441106E-002	-1.9598821E-001	0
1.684089357456323E+003	-8.9402921E-002	-1.9599012E-001	0
1.694089357203702E+003	-8.9212023E-002	-1.9598757E-001	0
1.704089356951081E+003	-8.9173838E-002	-1.9598566E-001	0
1.714089356698460E+003	-8.9173838E-002	-1.9598375E-001	0
1.724089356445838E+003	-8.8982940E-002	-1.9598630E-001	0
1.734089356193217E+003	-8.9097477E-002	-1.9598886E-001	0
1.744089355940596E+003	-8.8906579E-002	-1.9598185E-001	0
1.754089355687975E+003	-8.8887490E-002	-1.9598694E-001	0
1.764089355435353E+003	-8.8715680E-002	-1.9598313E-001	0
1.774089355182732E+003	-8.8524774E-002	-1.9599012E-001	0
1.784089354930111E+003	-8.8543870E-002	-1.9598694E-001	0
1.794089354677490E+003	-8.8372059E-002	-1.9598947E-001	0
1.804089354424868E+003	-8.8448413E-002	-1.9598249E-001	0
1.814089354172247E+003	-8.8257514E-002	-1.9599077E-001	0
1.824089353919626E+003	-8.8104792E-002	-1.9599459E-001	0
1.834089353667005E+003	-8.8200241E-002	-1.9599077E-001	0
1.844089353414383E+003	-8.8066615E-002	-1.9598566E-001	0
1.854089353161762E+003	-8.8009343E-002	-1.9598821E-001	0
1.864089352909141E+003	-8.7818444E-002	-1.9598503E-001	0
1.874089352656520E+003	-8.7761171E-002	-1.9598566E-001	0
1.880205752502006E+003	-8.7703899E-002	-1.9598566E-001	0