time/s	Ewe/V	I/mA	error	
6.005299848293362E+001	2.6913755E+000	-2.5024857E-002	0
6.014319848065497E+001	9.4036255E-003	-1.0421810E+001	0
6.014339848064992E+001	9.3081752E-003	-1.0360465E+001	0
6.014359848064487E+001	9.2699947E-003	-1.0299628E+001	0
6.014379848063982E+001	9.3463548E-003	-1.0239364E+001	0
6.014399848063476E+001	9.3081752E-003	-1.0179863E+001	0
6.014419848062971E+001	9.3081752E-003	-1.0120426E+001	0
6.014439848062466E+001	9.2890849E-003	-1.0061945E+001	0
6.014459848061961E+001	9.2318142E-003	-1.0004035E+001	0
6.014479848061455E+001	9.3081752E-003	-9.9456806E+000	0
6.014499848060950E+001	9.3654450E-003	-9.8882160E+000	0
6.014519848060445E+001	9.1936337E-003	-9.8325338E+000	0
6.014539848059940E+001	9.3272654E-003	-9.7753248E+000	0
6.014559848059434E+001	9.2509044E-003	-9.7191973E+000	0
6.014579848058929E+001	9.3081752E-003	-9.6644697E+000	0
6.014599848058424E+001	9.2890849E-003	-9.6094875E+000	0
6.014619848057919E+001	9.3654450E-003	-9.5554590E+000	0
6.014639848057413E+001	9.2127239E-003	-9.5011778E+000	0
6.014659848056908E+001	9.3081752E-003	-9.4478493E+000	0
6.014679848056403E+001	9.3463548E-003	-9.3943949E+000	0
6.014699848055898E+001	9.2890849E-003	-9.3418941E+000	0
6.014719848055393E+001	9.3272654E-003	-9.2893934E+000	0
6.014739848054887E+001	9.2699947E-003	-9.2383575E+000	0
6.014759848054382E+001	9.2699947E-003	-9.1868753E+000	0
6.014779848053877E+001	9.3845353E-003	-9.1353931E+000	0
6.014799848053372E+001	9.3272654E-003	-9.0853109E+000	0
6.014819848052866E+001	9.2509044E-003	-9.0352917E+000	0
6.014859848051856E+001	9.2699947E-003	-8.9358273E+000	0
6.014899848050845E+001	9.3272654E-003	-8.8389091E+000	0
6.014939848049835E+001	9.4227158E-003	-8.7419271E+000	0
6.014979848048824E+001	9.2127239E-003	-8.6483812E+000	0
6.015019848047814E+001	9.3081752E-003	-8.5552168E+000	0
6.015059848046803E+001	9.2890849E-003	-8.4647884E+000	0
6.015099848045793E+001	9.3272654E-003	-8.3748693E+000	0
6.015139848044782E+001	9.2890849E-003	-8.2871151E+000	0
6.015179848043772E+001	9.2890849E-003	-8.1994867E+000	0
6.015219848042761E+001	9.3272654E-003	-8.1147223E+000	0
6.015259848041751E+001	9.4036255E-003	-8.0302763E+000	0
6.015299848040740E+001	9.3654450E-003	-7.9473572E+000	0
6.015339848039730E+001	9.2890849E-003	-7.8660293E+000	0
6.015379848038720E+001	9.3654450E-003	-7.7859116E+000	0
6.015419848037709E+001	9.2699947E-003	-7.7071919E+000	0
6.015459848036699E+001	9.4036255E-003	-7.6297464E+000	0
6.015499848035688E+001	9.1936337E-003	-7.5529366E+000	0
6.015539848034678E+001	9.3081752E-003	-7.4786091E+000	0
6.015579848033667E+001	9.3463548E-003	-7.4051089E+000	0
6.015619848032657E+001	9.3654450E-003	-7.3309078E+000	0
6.015659848031646E+001	9.3845353E-003	-7.2589989E+000	0
6.015699848030636E+001	9.3081752E-003	-7.1895075E+000	0
6.015739848029625E+001	9.3463548E-003	-7.1199517E+000	0
6.015779848028615E+001	9.2318142E-003	-7.0512242E+000	0
6.015819848027604E+001	9.2890849E-003	-6.9837694E+000	0
6.015859848026594E+001	9.3463548E-003	-6.9166961E+000	0
6.015899848025583E+001	9.3081752E-003	-6.8515320E+000	0
6.015939848024573E+001	9.3654450E-003	-6.7875137E+000	0
6.015979848023562E+001	9.3654450E-003	-6.7247672E+000	0
6.016019848022552E+001	9.3272654E-003	-6.6624670E+000	0
6.016059848021541E+001	9.3654450E-003	-6.6007395E+000	0
6.016099848020531E+001	9.3081752E-003	-6.5398397E+000	0
6.016139848019520E+001	9.3845353E-003	-6.4798937E+000	0
6.016179848018510E+001	9.2318142E-003	-6.4210291E+000	0
6.016219848017499E+001	9.3272654E-003	-6.3629289E+000	0
6.016259848016489E+001	9.3081752E-003	-6.3062282E+000	0
6.016299848015478E+001	9.3654450E-003	-6.2501645E+000	0
6.016339848014468E+001	9.3654450E-003	-6.1950550E+000	0
6.016379848013457E+001	9.3081752E-003	-6.1405187E+000	0
6.016419848012447E+001	9.4227158E-003	-6.0861726E+000	0
6.016459848011436E+001	9.3654450E-003	-6.0333543E+000	0
6.016499848010426E+001	9.2890849E-003	-5.9811087E+000	0
6.016539848009415E+001	9.3463548E-003	-5.9300079E+000	0
6.016579848008405E+001	9.3081752E-003	-5.8787169E+000	0
6.016619848007394E+001	9.3463548E-003	-5.8281894E+000	0
6.016679848005879E+001	9.3272654E-003	-5.7564707E+000	0
6.016739848004363E+001	9.4418060E-003	-5.6843061E+000	0
6.016799848002847E+001	9.3272654E-003	-5.6134148E+000	0
6.016859848001332E+001	9.3272654E-003	-5.5441785E+000	0
6.016919847999816E+001	9.3272654E-003	-5.4766598E+000	0
6.016979847998300E+001	9.3463548E-003	-5.4109225E+000	0
6.017039847996784E+001	9.3654450E-003	-5.3455043E+000	0
6.017099847995269E+001	9.3654450E-003	-5.2824402E+000	0
6.017159847993753E+001	9.2890849E-003	-5.2202668E+000	0
6.017219847992237E+001	9.3845353E-003	-5.1600661E+000	0
6.017279847990721E+001	9.4036255E-003	-5.1001210E+000	0
6.017339847989206E+001	9.3081752E-003	-5.0417662E+000	0
6.017399847987690E+001	9.4036255E-003	-4.9846840E+000	0
6.017459847986174E+001	9.3463548E-003	-4.9283013E+000	0
6.017519847984659E+001	9.3272654E-003	-4.8733830E+000	0
6.017579847983143E+001	9.3272654E-003	-4.8192286E+000	0
6.017639847981627E+001	9.4418060E-003	-4.7665372E+000	0
6.017699847980111E+001	9.3272654E-003	-4.7153730E+000	0
6.017759847978596E+001	9.3272654E-003	-4.6642094E+000	0
6.017839847976575E+001	9.3272654E-003	-4.5985360E+000	0
6.017919847974554E+001	9.3081752E-003	-4.5344534E+000	0
6.017999847972533E+001	9.3845353E-003	-4.4712625E+000	0
6.018079847970512E+001	9.4227158E-003	-4.4102345E+000	0
6.018159847968491E+001	9.3654450E-003	-4.3502889E+000	0
6.018239847966470E+001	9.3272654E-003	-4.2923794E+000	0
6.018319847964449E+001	9.3081752E-003	-4.2354245E+000	0
6.018399847962428E+001	9.3845353E-003	-4.1791692E+000	0
6.018479847960407E+001	9.3081752E-003	-4.1257143E+000	0
6.018559847958386E+001	9.2890849E-003	-4.0728960E+000	0
6.018639847956365E+001	9.3272654E-003	-4.0208411E+000	0
6.018719847954344E+001	9.4608963E-003	-3.9707587E+000	0
6.018819847951818E+001	9.3845353E-003	-3.9108765E+000	0
6.018919847949292E+001	9.4036255E-003	-3.8522668E+000	0
6.019019847946765E+001	9.3845353E-003	-3.7931485E+000	0
6.019119847944239E+001	9.3272654E-003	-3.7377844E+000	0
6.019219847941713E+001	9.3845353E-003	-3.6829932E+000	0
6.019319847939187E+001	9.2890849E-003	-3.6306837E+000	0
6.019419847936661E+001	9.3654450E-003	-3.5793927E+000	0
6.019539847933629E+001	9.2509044E-003	-3.5199556E+000	0
6.019659847930598E+001	9.4608963E-003	-3.4617281E+000	0
6.019779847927566E+001	9.3654450E-003	-3.4068730E+000	0
6.019899847924535E+001	9.4227158E-003	-3.3519545E+000	0
6.020019847921503E+001	9.3272654E-003	-3.2995181E+000	0
6.020139847918472E+001	9.3654450E-003	-3.2491176E+000	0
6.020279847914935E+001	9.4036255E-003	-3.1926084E+000	0
6.020419847911398E+001	9.3845353E-003	-3.1370533E+000	0
6.020559847907862E+001	9.3654450E-003	-3.0837896E+000	0
6.020699847904325E+001	9.3654450E-003	-3.0323708E+000	0
6.020859847900283E+001	9.3654450E-003	-2.9759886E+000	0
6.021019847896241E+001	9.3845353E-003	-2.9227881E+000	0
6.021179847892199E+001	9.3463548E-003	-2.8712425E+000	0
6.021339847888157E+001	9.3654450E-003	-2.8210967E+000	0
6.021519847883610E+001	9.4608963E-003	-2.7656054E+000	0
6.021699847879063E+001	9.4418060E-003	-2.7138686E+000	0
6.021899847874010E+001	9.4036255E-003	-2.6592681E+000	0
6.022099847868958E+001	9.3272654E-003	-2.6063225E+000	0
6.022299847863906E+001	9.3845353E-003	-2.5554769E+000	0
6.022519847858348E+001	9.4227158E-003	-2.5027857E+000	0
6.022739847852790E+001	9.4227158E-003	-2.4514945E+000	0
6.022979847846727E+001	9.3654450E-003	-2.3989940E+000	0
6.023219847840664E+001	9.3463548E-003	-2.3477027E+000	0
6.023479847834096E+001	9.4036255E-003	-2.2973022E+000	0
6.023739847827528E+001	9.4036255E-003	-2.2467749E+000	0
6.024019847820455E+001	9.4227158E-003	-2.1958017E+000	0
6.024319847812876E+001	9.3654450E-003	-2.1440651E+000	0
6.024639847804792E+001	9.3463548E-003	-2.0913739E+000	0
6.024979847796203E+001	9.2509044E-003	-2.0391281E+000	0
6.025319847787614E+001	9.4036255E-003	-1.9889821E+000	0
6.025699847778014E+001	9.4036255E-003	-1.9366090E+000	0
6.026079847768415E+001	9.2890849E-003	-1.8862087E+000	0
6.026499847757805E+001	9.3654450E-003	-1.8338355E+000	0
6.026939847746689E+001	9.3463548E-003	-1.7821627E+000	0
6.027399847735069E+001	9.3845353E-003	-1.7310622E+000	0
6.027899847722438E+001	9.3463548E-003	-1.6791983E+000	0
6.028419847709301E+001	9.4227158E-003	-1.6280980E+000	0
6.028979847695155E+001	9.3654450E-003	-1.5762340E+000	0
6.029579847679997E+001	9.2890849E-003	-1.5254518E+000	0
6.030219847663830E+001	9.4036255E-003	-1.4732697E+000	0
6.030899847646651E+001	9.4227158E-003	-1.4223602E+000	0
6.031619847628463E+001	9.4227158E-003	-1.3717690E+000	0
6.032399847608758E+001	9.4036255E-003	-1.3195869E+000	0
6.033259847587033E+001	9.4227158E-003	-1.2689956E+000	0
6.034159847564297E+001	9.4418060E-003	-1.2182134E+000	0
6.035139847539540E+001	9.4036255E-003	-1.1673040E+000	0
6.036199847512762E+001	9.2890849E-003	-1.1170946E+000	0
6.037359847483458E+001	9.3463548E-003	-1.0665669E+000	0
6.038639847451122E+001	9.2699947E-003	-1.0164212E+000	0
6.040019847416261E+001	9.4036255E-003	-9.6595716E-001	0
6.041579847376852E+001	9.3463548E-003	-9.1587496E-001	0
6.043319847332896E+001	9.4036255E-003	-8.6464745E-001	0
6.045319847282371E+001	9.4799856E-003	-8.1456530E-001	0
6.047499847227300E+001	9.4036255E-003	-7.6422864E-001	0
6.050019847163640E+001	9.4227158E-003	-7.1414649E-001	0
6.052959847089369E+001	9.4608963E-003	-6.6412795E-001	0
6.056379847002972E+001	9.3845353E-003	-6.1379129E-001	0
6.060459846899903E+001	9.3845353E-003	-5.6364548E-001	0
6.065439846774098E+001	9.4227158E-003	-5.1311785E-001	0
6.071539846619999E+001	9.3654450E-003	-4.6290842E-001	0
6.079299846423964E+001	9.3845353E-003	-4.1278389E-001	0
6.089259846172354E+001	9.4990758E-003	-3.6260659E-001	0
6.102619845834852E+001	9.4418060E-003	-3.1254381E-001	0
6.121339845361945E+001	9.4418060E-003	-2.6249376E-001	0
6.149239844657131E+001	9.4227158E-003	-2.1246918E-001	0
6.195079843499116E+001	9.3654450E-003	-1.6241276E-001	0
6.283279841270996E+001	9.4036255E-003	-1.1240726E-001	0
6.522799835220212E+001	9.3845353E-003	-6.2389027E-002	0
7.522799809958087E+001	9.3463548E-003	-2.3550777E-002	0
8.522799784695962E+001	9.4227158E-003	-1.4746886E-002	0
9.522799759433838E+001	9.3654450E-003	-1.0664954E-002	0
1.052279973417171E+002	9.3845353E-003	-8.4471218E-003	0
1.152279970890959E+002	9.2890849E-003	-6.9882893E-003	0
1.252279968364746E+002	9.3081752E-003	-5.9143649E-003	0
1.352279965838534E+002	9.4418060E-003	-5.1197368E-003	0
1.452279963312321E+002	9.3463548E-003	-4.5566899E-003	0
1.552279960786109E+002	9.3654450E-003	-4.0323678E-003	0
1.652279958259896E+002	9.3845353E-003	-3.6903385E-003	0
1.752279955733684E+002	9.2890849E-003	-3.3950335E-003	0
1.852279953207471E+002	9.3081752E-003	-3.1381138E-003	0
1.952279950681259E+002	9.3654450E-003	-2.9274090E-003	0
2.052279948155046E+002	9.3845353E-003	-2.7209059E-003	0
2.152279945628834E+002	9.3081752E-003	-2.5472494E-003	0
2.252279943102621E+002	9.3845353E-003	-2.4690789E-003	0
2.352279940576409E+002	9.3463548E-003	-2.3574242E-003	0
2.452279938050197E+002	9.2699947E-003	-2.1599603E-003	0
2.552279935523984E+002	9.3845353E-003	-2.0665119E-003	0
2.652279932997772E+002	9.3654450E-003	-2.0159681E-003	0
2.752279930471559E+002	9.3272654E-003	-1.9131621E-003	0
2.852279927945347E+002	9.3463548E-003	-1.8261429E-003	0
2.952279925419134E+002	9.4418060E-003	-1.7719708E-003	0
3.052279922892922E+002	9.3463548E-003	-1.6928451E-003	0
3.152279920366709E+002	9.3845353E-003	-1.6177936E-003	0
3.252279917840497E+002	9.4227158E-003	-1.5677592E-003	0
3.352279915314284E+002	9.3463548E-003	-1.5032111E-003	0
3.452279912788072E+002	9.2890849E-003	-1.4822679E-003	0
3.552279910261859E+002	9.3463548E-003	-1.4487843E-003	0
3.652279907735647E+002	9.3845353E-003	-1.3994501E-003	0
3.752279905209434E+002	9.3845353E-003	-1.3779341E-003	0
3.852279902683222E+002	9.2318142E-003	-1.3534260E-003	0
3.952279900157009E+002	9.4418060E-003	-1.2630967E-003	0
4.052279897630797E+002	9.3845353E-003	-1.2375067E-003	0
4.152279895104584E+002	9.3463548E-003	-1.2186642E-003	0
4.252279892578372E+002	9.3463548E-003	-1.1702213E-003	0
4.352279890052159E+002	9.4036255E-003	-1.1521426E-003	0
4.452279887525947E+002	9.4227158E-003	-1.1323453E-003	0
4.552279884999734E+002	9.4227158E-003	-1.1124207E-003	0
4.652279882473522E+002	9.3463548E-003	-1.0751177E-003	0
4.752279879947309E+002	9.4036255E-003	-1.0640414E-003	0
4.852279877421097E+002	9.3463548E-003	-1.0312580E-003	0
4.952279874894884E+002	9.3845353E-003	-1.0157893E-003	0
5.052279872368672E+002	9.3654450E-003	-9.9452795E-004	0
5.152279869842459E+002	9.1936337E-003	-9.8797120E-004	0
5.252279867316247E+002	9.3463548E-003	-9.9503715E-004	0
5.352279864790034E+002	9.4036255E-003	-9.5041358E-004	0
5.452279862263822E+002	9.4799856E-003	-9.2940673E-004	0
5.552279859737610E+002	9.2699947E-003	-8.9452276E-004	0
5.652279857211397E+002	9.3654450E-003	-8.7701698E-004	0
5.752279854685185E+002	9.2890849E-003	-8.8401930E-004	0
5.852279852158972E+002	9.3654450E-003	-8.3831360E-004	0
5.952279849632760E+002	9.3654450E-003	-8.8160031E-004	0
6.052279847106547E+002	9.4799856E-003	-8.4321515E-004	0
6.152279844580335E+002	9.4227158E-003	-8.2761917E-004	0
6.252279842054122E+002	9.2699947E-003	-8.2348147E-004	0
6.352279839527910E+002	9.3463548E-003	-8.1291446E-004	0
6.452279837001697E+002	9.4036255E-003	-7.3805382E-004	0
6.552279834475485E+002	9.3272654E-003	-8.0381148E-004	0
6.652279831949272E+002	9.3845353E-003	-7.1978429E-004	0
6.752279829423060E+002	9.3845353E-003	-7.5320416E-004	0
6.852279826896847E+002	9.3272654E-003	-7.4371928E-004	0
6.952279824370635E+002	9.2699947E-003	-7.2920549E-004	0
7.052279821844422E+002	9.3463548E-003	-8.2278118E-004	0
7.152279819318210E+002	9.3845353E-003	-7.3207001E-004	0
7.252279816791997E+002	9.3463548E-003	-6.9540355E-004	0
7.352279814265785E+002	9.4227158E-003	-6.9355761E-004	0
7.452279811739572E+002	9.3081752E-003	-6.6064688E-004	0
7.552279809213360E+002	9.3463548E-003	-6.8712817E-004	0
7.652279806687147E+002	9.4608963E-003	-6.7878916E-004	0
7.752279804160935E+002	9.3081752E-003	-9.7791338E-004	0
7.852279801634722E+002	9.3272654E-003	-6.8101718E-004	0
7.952279799108510E+002	9.3654450E-003	-6.5300806E-004	0
8.052279796582297E+002	9.3845353E-003	-6.3346536E-004	0
8.152279794056085E+002	9.4227158E-003	-6.0978497E-004	0
8.252279791529872E+002	9.3845353E-003	-6.3531136E-004	0
8.352279789003660E+002	9.2890849E-003	-6.1844231E-004	0
8.452279786477447E+002	9.2699947E-003	-6.1888795E-004	0
8.552279783951235E+002	9.3463548E-003	-6.7140494E-004	0
8.652279781425023E+002	9.4227158E-003	-6.1799667E-004	0
8.752279778898810E+002	9.4036255E-003	-6.0291000E-004	0
8.852279776372598E+002	9.4418060E-003	-5.8890547E-004	0
8.952279773846385E+002	9.4418060E-003	-5.8833259E-004	0
9.052279771320173E+002	9.2699947E-003	-5.7159079E-004	0
9.152279768793960E+002	9.4036255E-003	-5.7273655E-004	0
9.252279766267748E+002	9.3081752E-003	-5.8534066E-004	0
9.352279763741535E+002	9.3272654E-003	-5.4625527E-004	0
9.452279761215323E+002	9.3845353E-003	-7.4575632E-004	0
9.552279758689110E+002	9.3654450E-003	-5.6274247E-004	0
9.652279756162898E+002	9.3654450E-003	-5.4542773E-004	0
9.752279753636685E+002	9.3272654E-003	-5.6726206E-004	0
9.852279751110473E+002	9.3081752E-003	-5.2219292E-004	0
9.952279748584260E+002	9.3845353E-003	-5.8852352E-004	0
1.005227974605805E+003	9.3845353E-003	-5.1353558E-004	0
1.015227974353184E+003	9.4608963E-003	-5.2295678E-004	0
1.025227974100562E+003	9.3081752E-003	-4.8469892E-004	0
1.035227973847941E+003	9.3463548E-003	-5.0277752E-004	0
1.045227973595320E+003	9.4036255E-003	-4.8762714E-004	0
1.055227973342699E+003	9.2890849E-003	-5.2461191E-004	0
1.065227973090077E+003	9.3081752E-003	-5.0265022E-004	0
1.075227972837456E+003	9.4036255E-003	-5.1525433E-004	0
1.085227972584835E+003	9.4227158E-003	-4.6483794E-004	0
1.095227972332214E+003	9.4990758E-003	-4.7438650E-004	0
1.105227972079592E+003	9.3272654E-003	-4.5872686E-004	0
1.115227971826971E+003	9.3081752E-003	-4.8406233E-004	0
1.125227971574350E+003	9.3081752E-003	-4.9386558E-004	0
1.135227971321729E+003	9.3654450E-003	-4.1995975E-004	0
1.145227971069107E+003	9.3272654E-003	-4.5541668E-004	0
1.155227970816486E+003	9.4418060E-003	-4.5217015E-004	0
1.165227970563865E+003	9.2318142E-003	-4.5598959E-004	0
1.175227970311244E+003	9.3463548E-003	-4.6356476E-004	0
1.185227970058622E+003	9.3845353E-003	-4.5057875E-004	0
1.195227969806001E+003	9.4036255E-003	-4.3135430E-004	0
1.205227969553380E+003	9.3845353E-003	-4.3186359E-004	0
1.215227969300759E+003	9.3845353E-003	-4.2339726E-004	0
1.225227969048137E+003	9.3845353E-003	-4.8113411E-004	0
1.235227968795516E+003	9.4036255E-003	-4.3370968E-004	0
1.245227968542895E+003	9.3081752E-003	-4.2785320E-004	0
1.255227968290274E+003	9.3463548E-003	-4.3485549E-004	0
1.265227968037652E+003	9.3654450E-003	-4.7438650E-004	0
1.275227967785031E+003	9.3845353E-003	-4.2963558E-004	0
1.285227967532410E+003	9.3845353E-003	-4.1435790E-004	0
1.295227967279789E+003	9.3272654E-003	-4.0589154E-004	0
1.305227967027167E+003	9.4418060E-003	-3.8469379E-004	0
1.315227966774546E+003	9.4036255E-003	-4.0971095E-004	0
1.325227966521925E+003	9.3272654E-003	-3.9978046E-004	0
1.335227966269304E+003	9.4418060E-003	-4.1041119E-004	0
1.345227966016682E+003	9.4418060E-003	-4.1066582E-004	0
1.355227965764061E+003	9.3081752E-003	-3.8488477E-004	0
1.365227965511440E+003	9.3654450E-003	-3.7769147E-004	0
1.375227965258819E+003	9.4227158E-003	-3.8692178E-004	0
1.385227965006197E+003	9.3463548E-003	-3.9316012E-004	0
1.395227964753576E+003	9.2890849E-003	-3.9220526E-004	0
1.405227964500955E+003	9.4608963E-003	-3.9175971E-004	0
1.415227964248334E+003	9.3845353E-003	-3.8202020E-004	0
1.425227963995712E+003	9.3272654E-003	-3.8800391E-004	0
1.435227963743091E+003	9.3463548E-003	-3.4866389E-004	0
1.445227963490470E+003	9.3654450E-003	-3.7781883E-004	0
1.455227963237849E+003	9.3845353E-003	-3.7075288E-004	0
1.465227962985227E+003	9.4608963E-003	-3.6273213E-004	0
1.475227962732606E+003	9.3654450E-003	-7.7764847E-004	0
1.485227962479985E+003	9.3463548E-003	-4.5783567E-004	0
1.495227962227364E+003	9.3654450E-003	-4.0875611E-004	0
1.505227961974742E+003	9.3654450E-003	-3.5401108E-004	0
1.515227961722121E+003	9.4036255E-003	-3.3765123E-004	0
1.525227961469500E+003	9.3654450E-003	-3.6375062E-004	0
1.535227961216879E+003	9.3654450E-003	-3.6050411E-004	0
1.545227960964257E+003	9.3463548E-003	-3.6145895E-004	0
1.555227960711636E+003	9.3272654E-003	-3.4554471E-004	0
1.565227960459015E+003	9.4036255E-003	-3.4637222E-004	0
1.575227960206394E+003	9.3845353E-003	-3.3726930E-004	0
1.585227959953772E+003	9.4227158E-003	-3.4548106E-004	0
1.595227959701151E+003	9.3272654E-003	-3.5101920E-004	0
1.605227959448530E+003	9.3654450E-003	-3.3911533E-004	0
1.615227959195909E+003	9.2890849E-003	-3.2441056E-004	0
1.625227958943287E+003	9.4036255E-003	-5.5211171E-004	0
1.635227958690666E+003	9.2890849E-003	-3.5751221E-004	0
1.645227958438045E+003	9.3845353E-003	-3.3701464E-004	0
1.655227958185424E+003	9.4036255E-003	-3.3026704E-004	0
1.665227957932802E+003	9.3654450E-003	-3.0620472E-004	0
1.675227957680181E+003	9.2509044E-003	-3.0703223E-004	0
1.685227957427560E+003	9.3654450E-003	-3.0957852E-004	0
1.695227957174939E+003	9.3463548E-003	-2.8583445E-004	0
1.705227956922317E+003	9.4227158E-003	-2.9710174E-004	0
1.715227956669696E+003	9.2699947E-003	-3.1091532E-004	0
1.725227956417075E+003	9.3654450E-003	-3.9863464E-004	0
1.735227956164454E+003	9.3463548E-003	-3.3847880E-004	0
1.745227955911832E+003	9.3463548E-003	-3.1244307E-004	0
1.755227955659211E+003	9.3463548E-003	-3.1091532E-004	0
1.765227955406590E+003	9.3272654E-003	-2.7182992E-004	0
1.775227955153969E+003	9.3654450E-003	-3.1810850E-004	0
1.785227954901347E+003	9.3654450E-003	-3.1027873E-004	0
1.795227954648726E+003	9.3845353E-003	-2.8284258E-004	0
1.805227954396105E+003	9.4227158E-003	-2.8920828E-004	0
1.815227954143484E+003	9.3845353E-003	-3.5095555E-004	0
1.825227953890862E+003	9.2890849E-003	-2.9875684E-004	0
1.835227953638241E+003	9.4036255E-003	-3.0289454E-004	0
1.845227953385620E+003	9.4036255E-003	-3.2173700E-004	0
1.855227953132999E+003	9.3081752E-003	-2.8933558E-004	0
1.860052753011114E+003	9.3845353E-003	-4.0137189E-004	0