time/s	Ewe/V	I/mA	error	
6.005299848293362E+001	2.9067152E+000	-2.5007974E-002	0
6.017319847989711E+001	8.4905988E-003	-6.1384959E+000	0
6.017379847988195E+001	8.3379038E-003	-6.0793676E+000	0
6.017439847986680E+001	8.4524257E-003	-6.0240531E+000	0
6.017499847985164E+001	8.4142517E-003	-5.9617457E+000	0
6.017559847983648E+001	8.4142517E-003	-5.9070673E+000	0
6.017619847982132E+001	8.4905988E-003	-5.8492103E+000	0
6.017699847980111E+001	8.4715122E-003	-5.7837238E+000	0
6.017759847978596E+001	8.4524257E-003	-5.7258663E+000	0
6.017839847976575E+001	8.3379038E-003	-5.6597443E+000	0
6.017919847974554E+001	8.3951643E-003	-5.5948935E+000	0
6.017979847973038E+001	8.4142517E-003	-5.5383077E+000	0
6.018059847971017E+001	8.4333383E-003	-5.4709139E+000	0
6.018139847968996E+001	8.3760777E-003	-5.4187784E+000	0
6.018219847966975E+001	8.4524257E-003	-5.3571067E+000	0
6.018279847965459E+001	8.4142517E-003	-5.3068795E+000	0
6.018359847963438E+001	8.4142517E-003	-5.2502937E+000	0
6.018439847961417E+001	8.3760777E-003	-5.1905293E+000	0
6.018539847958891E+001	8.4524257E-003	-5.1224995E+000	0
6.018619847956870E+001	8.3951643E-003	-5.0684566E+000	0
6.018699847954849E+001	8.4333383E-003	-5.0131426E+000	0
6.018779847952828E+001	8.3569912E-003	-4.9603724E+000	0
6.018879847950302E+001	8.4333383E-003	-4.8961573E+000	0
6.018979847947776E+001	8.4715122E-003	-4.8332133E+000	0
6.019079847945250E+001	8.4333383E-003	-4.7715421E+000	0
6.019179847942723E+001	8.4142517E-003	-4.7174993E+000	0
6.019279847940197E+001	8.4715122E-003	-4.6615496E+000	0
6.019379847937671E+001	8.4142517E-003	-4.6005135E+000	0
6.019479847935145E+001	8.4905988E-003	-4.5471067E+000	0
6.019579847932619E+001	8.5096862E-003	-4.4886136E+000	0
6.019699847929587E+001	8.3760777E-003	-4.4301214E+000	0
6.019799847927061E+001	8.3760777E-003	-4.3779860E+000	0
6.019919847924029E+001	8.3188172E-003	-4.3201294E+000	0
6.020059847920493E+001	8.4142517E-003	-4.2578216E+000	0
6.020179847917461E+001	8.4142517E-003	-4.2025070E+000	0
6.020279847914935E+001	8.5096862E-003	-4.1510081E+000	0
6.020419847911398E+001	8.4333383E-003	-4.1007805E+000	0
6.020539847908367E+001	8.4142517E-003	-4.0492811E+000	0
6.020659847905335E+001	8.4715122E-003	-3.9958749E+000	0
6.020799847901799E+001	8.4715122E-003	-3.9373817E+000	0
6.020939847898262E+001	8.3760777E-003	-3.8839750E+000	0
6.021079847894725E+001	8.4333383E-003	-3.8292971E+000	0
6.021239847890683E+001	8.4905988E-003	-3.7771618E+000	0
6.021399847886642E+001	8.4333383E-003	-3.7167618E+000	0
6.021559847882600E+001	8.4142517E-003	-3.6639912E+000	0
6.021739847878052E+001	8.5096862E-003	-3.6112204E+000	0
6.021899847874010E+001	8.4333383E-003	-3.5603569E+000	0
6.022039847870474E+001	8.4905988E-003	-3.5101295E+000	0
6.022199847866432E+001	8.4142517E-003	-3.4586298E+000	0
6.022419847860874E+001	8.3951643E-003	-3.3950512E+000	0
6.022599847856327E+001	8.3569912E-003	-3.3435516E+000	0
6.022819847850769E+001	8.4333383E-003	-3.2907810E+000	0
6.023019847845717E+001	8.5096862E-003	-3.2367384E+000	0
6.023239847840159E+001	8.4524257E-003	-3.1839676E+000	0
6.023459847834602E+001	8.5287727E-003	-3.1324685E+000	0
6.023679847829044E+001	8.5096862E-003	-3.0765188E+000	0
6.023919847822981E+001	8.4524257E-003	-3.0250199E+000	0
6.024159847816918E+001	8.4524257E-003	-2.9716132E+000	0
6.024419847810350E+001	8.4333383E-003	-2.9213855E+000	0
6.024679847803782E+001	8.3569912E-003	-2.8698864E+000	0
6.024979847796203E+001	8.4715122E-003	-2.8171155E+000	0
6.025239847789635E+001	8.4142517E-003	-2.7643447E+000	0
6.025559847781551E+001	8.5287727E-003	-2.7090309E+000	0
6.025899847772962E+001	8.3951643E-003	-2.6537168E+000	0
6.026239847764373E+001	8.4142517E-003	-2.6028533E+000	0
6.026559847756289E+001	8.4524257E-003	-2.5507183E+000	0
6.026959847746184E+001	8.3951643E-003	-2.4979477E+000	0
6.030319847661303E+001	8.5287727E-003	-2.1622710E+000	0
6.030879847647157E+001	8.4905988E-003	-2.1105216E+000	0
6.031459847632505E+001	8.4715122E-003	-2.0601709E+000	0
6.032099847616337E+001	8.3569912E-003	-2.0089304E+000	0
6.032759847599664E+001	8.4333383E-003	-1.9585797E+000	0
6.033459847581980E+001	8.4715122E-003	-1.9081656E+000	0
6.034219847562781E+001	8.4142517E-003	-1.8574970E+000	0
6.035019847542571E+001	8.3379038E-003	-1.8073372E+000	0
6.035899847520341E+001	8.3379038E-003	-1.7559694E+000	0
6.036859847496089E+001	8.3760777E-003	-1.7046018E+000	0
6.037879847470322E+001	8.4333383E-003	-1.6545688E+000	0
6.038979847442533E+001	8.4715122E-003	-1.6031376E+000	0
6.040179847412219E+001	8.3188172E-003	-1.5520241E+000	0
6.041479847379378E+001	8.5096862E-003	-1.5018005E+000	0
6.042919847343001E+001	8.4142517E-003	-1.4506235E+000	0
6.044499847303086E+001	8.4142517E-003	-1.3996372E+000	0
6.046219847259636E+001	8.4715122E-003	-1.3492229E+000	0
6.048159847210627E+001	8.3569912E-003	-1.2984909E+000	0
6.050299847156566E+001	8.3569912E-003	-1.2476318E+000	0
6.052699847095937E+001	8.3951643E-003	-1.1975354E+000	0
6.055379847028235E+001	8.5096862E-003	-1.1473756E+000	0
6.058419846951438E+001	8.4333383E-003	-1.0970249E+000	0
6.061899846863525E+001	8.3951643E-003	-1.0466743E+000	0
6.065899846762477E+001	8.3760777E-003	-9.9664152E-001	0
6.070599846643745E+001	8.4142517E-003	-9.4641805E-001	0
6.076059846505814E+001	8.3951643E-003	-8.9625812E-001	0
6.082479846343631E+001	8.3379038E-003	-8.4603465E-001	0
6.090399846143555E+001	8.3951643E-003	-7.9581124E-001	0
6.099899845903565E+001	8.2806433E-003	-7.4577850E-001	0
6.111939845599409E+001	8.4333383E-003	-6.9549149E-001	0
6.126979845219466E+001	8.4715122E-003	-6.4526802E-001	0
6.146859844717255E+001	8.3188172E-003	-5.9510815E-001	0
6.173219844051346E+001	8.4905988E-003	-5.4501182E-001	0
6.209359843138373E+001	8.4524257E-003	-4.9459758E-001	0
6.267519841669127E+001	8.4142517E-003	-4.4456747E-001	0
6.346799839666346E+001	8.4715122E-003	-3.9456090E-001	0
6.470939836530306E+001	8.3951643E-003	-3.4456062E-001	0
6.674119831397547E+001	8.4333383E-003	-2.9452220E-001	0
7.022999822584097E+001	8.3379038E-003	-2.4444558E-001	0
7.648559806781122E+001	8.4524257E-003	-1.9438805E-001	0
8.648559781518998E+001	8.3569912E-003	-1.5207428E-001	0
9.648559756256873E+001	8.3760777E-003	-1.2767227E-001	0
1.064855973099475E+002	8.3951643E-003	-1.1138306E-001	0
1.164855970573262E+002	8.4715122E-003	-9.9299766E-002	0
1.264855968047050E+002	8.3951643E-003	-9.0067089E-002	0
1.364855965520837E+002	8.4333383E-003	-8.2170635E-002	0
1.464855962994625E+002	8.3951643E-003	-7.5845845E-002	0
1.564855960468412E+002	8.3951643E-003	-7.0360959E-002	0
1.664855957942200E+002	8.4905988E-003	-6.5830521E-002	0
1.764855955415987E+002	8.3760777E-003	-6.1732762E-002	0
1.864855952889775E+002	8.5669467E-003	-5.7800446E-002	0
1.964855950363562E+002	8.3379038E-003	-5.5038918E-002	0
2.064855947837350E+002	8.4333383E-003	-5.1959231E-002	0
2.164855945311137E+002	8.4524257E-003	-4.9598571E-002	0
2.264855942784925E+002	8.4142517E-003	-4.7396980E-002	0
2.364855940258713E+002	8.4142517E-003	-4.4819977E-002	0
2.464855937732500E+002	8.4524257E-003	-4.3603651E-002	0
2.564855935206288E+002	8.4524257E-003	-4.1779537E-002	0
2.664855932680075E+002	8.4333383E-003	-4.0063586E-002	0
2.764855930153863E+002	8.4905988E-003	-3.8509242E-002	0
2.864855927627650E+002	8.4905988E-003	-3.6942810E-002	0
2.964855925101438E+002	8.4333383E-003	-3.5620689E-002	0
3.064855922575225E+002	8.4333383E-003	-3.4279488E-002	0
3.164855920049013E+002	8.4333383E-003	-3.3020996E-002	0
3.264855917522800E+002	8.4905988E-003	-3.1823587E-002	0
3.364855914996588E+002	8.3569912E-003	-3.0705703E-002	0
3.464855912470375E+002	8.5096862E-003	-2.9677536E-002	0
3.564855909944163E+002	8.4142517E-003	-2.8761977E-002	0
3.664855907417950E+002	8.3569912E-003	-2.7770709E-002	0
3.764855904891738E+002	8.4142517E-003	-2.6885059E-002	0
3.864855902365525E+002	8.5096862E-003	-2.6075756E-002	0
3.964855899839313E+002	8.4524257E-003	-2.5256271E-002	0
4.064855897313100E+002	8.4905988E-003	-2.4377620E-002	0
4.164855894786888E+002	8.3379038E-003	-2.3697475E-002	0
4.264855892260675E+002	8.3379038E-003	-2.3087952E-002	0
4.364855889734463E+002	8.4715122E-003	-2.2326367E-002	0
4.464855887208250E+002	8.3379038E-003	-2.1669127E-002	0
4.564855884682038E+002	8.4715122E-003	-2.1048790E-002	0
4.664855882155825E+002	8.3951643E-003	-2.0479349E-002	0
4.764855879629613E+002	8.4142517E-003	-1.9835470E-002	0
4.864855877103400E+002	8.4715122E-003	-1.9393280E-002	0
4.964855874577188E+002	8.4715122E-003	-1.8828295E-002	0
5.064855872050975E+002	8.4715122E-003	-1.8370200E-002	0
5.164855869524763E+002	8.3951643E-003	-1.7929921E-002	0
5.264855866998550E+002	8.4524257E-003	-1.7460372E-002	0
5.364855864472338E+002	8.4715122E-003	-1.6996549E-002	0
5.464855861946126E+002	8.4142517E-003	-1.6605260E-002	0
5.564855859419913E+002	8.5096862E-003	-1.6237510E-002	0
5.664855856893701E+002	8.4715122E-003	-1.5816314E-002	0
5.764855854367488E+002	8.4524257E-003	-1.5470835E-002	0
5.864855851841276E+002	8.5096862E-003	-1.5042642E-002	0
5.964855849315063E+002	8.4715122E-003	-1.4715613E-002	0
6.064855846788851E+002	8.4524257E-003	-1.4403217E-002	0
6.164855844262638E+002	8.3760777E-003	-1.4149357E-002	0
6.264855841736426E+002	8.4524257E-003	-1.3806419E-002	0
6.364855839210213E+002	8.3951643E-003	-1.3464755E-002	0
6.464855836684001E+002	8.4905988E-003	-1.3246525E-002	0
6.564855834157788E+002	8.5096862E-003	-1.2858416E-002	0
6.664855831631576E+002	8.5478593E-003	-1.2598828E-002	0
6.764855829105363E+002	8.4715122E-003	-1.2367235E-002	0
6.864855826579151E+002	8.4524257E-003	-1.2137552E-002	0
6.964855824052938E+002	8.4524257E-003	-1.1889417E-002	0
7.064855821526726E+002	8.4905988E-003	-1.1699815E-002	0
7.164855819000513E+002	8.4333383E-003	-1.1390600E-002	0
7.264855816474301E+002	8.5287727E-003	-1.1286892E-002	0
7.364855813948088E+002	8.4142517E-003	-1.1017126E-002	0
7.464855811421876E+002	8.4333383E-003	-1.0834523E-002	0
7.564855808895663E+002	8.4333383E-003	-1.0599113E-002	0
7.664855806369451E+002	8.2806433E-003	-1.0338889E-002	0
7.764855803843238E+002	8.4905988E-003	-1.0202732E-002	0
7.864855801317026E+002	8.3569912E-003	-9.9965893E-003	0
7.964855798790813E+002	8.3951643E-003	-9.7879004E-003	0
8.064855796264601E+002	8.3951643E-003	-9.5843030E-003	0
8.164855793738388E+002	8.4142517E-003	-9.4920462E-003	0
8.264855791212176E+002	8.5096862E-003	-9.2903581E-003	0
8.364855788685963E+002	8.4524257E-003	-9.2337327E-003	0
8.464855786159751E+002	8.4333383E-003	-9.0129552E-003	0
8.564855783633539E+002	8.5096862E-003	-8.7711820E-003	0
8.664855781107326E+002	8.3951643E-003	-8.6859260E-003	0
8.764855778581114E+002	8.4524257E-003	-8.5535869E-003	0
8.864855776054901E+002	8.4905988E-003	-8.3442628E-003	0
8.964855773528689E+002	8.4524257E-003	-8.2723666E-003	0
9.064855771002476E+002	8.4524257E-003	-8.1552975E-003	0
9.164855768476264E+002	8.4905988E-003	-8.0146873E-003	0
9.264855765950051E+002	8.3951643E-003	-7.8798048E-003	0
9.364855763423839E+002	8.4715122E-003	-7.8301774E-003	0
9.464855760897626E+002	8.4905988E-003	-7.6253060E-003	0
9.564855758371414E+002	8.4142517E-003	-7.4815154E-003	0
9.664855755845201E+002	8.4333383E-003	-7.3663550E-003	0
9.764855753318989E+002	8.4524257E-003	-7.2919144E-003	0
9.864855750792776E+002	8.4715122E-003	-7.2327438E-003	0
9.964855748266564E+002	8.4715122E-003	-7.1379431E-003	0
1.006485574574035E+003	8.4524257E-003	-6.9769737E-003	0
1.016485574321414E+003	8.4905988E-003	-6.8223663E-003	0
1.026485574068793E+003	8.4142517E-003	-6.7084786E-003	0
1.036485573816171E+003	8.5096862E-003	-6.6423090E-003	0
1.046485573563550E+003	8.4905988E-003	-6.6168592E-003	0
1.056485573310929E+003	8.4333383E-003	-6.5354197E-003	0
1.066485573058308E+003	8.3379038E-003	-6.4024450E-003	0
1.076485572805686E+003	8.4715122E-003	-6.3579073E-003	0
1.086485572553065E+003	8.2997307E-003	-6.3661793E-003	0
1.096485572300444E+003	8.4715122E-003	-6.1142268E-003	0
1.106485572047823E+003	8.4142517E-003	-6.1377673E-003	0
1.116485571795201E+003	8.5096862E-003	-6.0162446E-003	0
1.126485571542580E+003	8.4142517E-003	-5.9545292E-003	0
1.136485571289959E+003	8.4333383E-003	-5.9055379E-003	0
1.146485571037338E+003	8.4524257E-003	-5.7235723E-003	0
1.156485570784716E+003	8.4715122E-003	-5.6917602E-003	0
1.166485570532095E+003	8.4524257E-003	-5.6020496E-003	0
1.176485570279474E+003	8.4142517E-003	-5.5587855E-003	0
1.186485570026853E+003	8.4524257E-003	-5.5403337E-003	0
1.196485569774231E+003	8.4524257E-003	-5.5040680E-003	0
1.206485569521610E+003	8.3569912E-003	-5.4359902E-003	0
1.216485569268989E+003	8.3951643E-003	-5.2832910E-003	0
1.226485569016368E+003	8.4715122E-003	-5.2826554E-003	0
1.236485568763746E+003	8.3951643E-003	-5.2928352E-003	0
1.246485568511125E+003	8.4715122E-003	-5.1783109E-003	0
1.256485568258504E+003	8.4524257E-003	-5.0828741E-003	0
1.266485568005883E+003	8.3951643E-003	-4.9957088E-003	0
1.276485567753261E+003	8.4524257E-003	-4.9778940E-003	0
1.286485567500640E+003	8.4142517E-003	-4.8646424E-003	0
1.296485567248019E+003	8.4715122E-003	-4.8271040E-003	0
1.306485566995398E+003	8.4142517E-003	-4.8347390E-003	0
1.316485566742776E+003	8.4333383E-003	-4.8137433E-003	0
1.326485566490155E+003	8.4333383E-003	-4.7253049E-003	0
1.336485566237534E+003	8.4715122E-003	-4.7004917E-003	0
1.346485565984913E+003	8.4524257E-003	-4.6273232E-003	0
1.356485565732291E+003	8.5096862E-003	-4.6476834E-003	0
1.366485565479670E+003	8.5287727E-003	-4.4854409E-003	0
1.376485565227049E+003	8.4524257E-003	-4.5369887E-003	0
1.386485564974428E+003	8.4333383E-003	-4.4876076E-003	0
1.396485564721806E+003	8.4333383E-003	-4.4641900E-003	0
1.406485564469185E+003	8.4905988E-003	-4.4125179E-003	0
1.416485564216564E+003	8.4715122E-003	-4.3843910E-003	0
1.426485563963943E+003	8.4142517E-003	-4.3357741E-003	0
1.436485563711321E+003	8.4905988E-003	-4.2862026E-003	0
1.446485563458700E+003	8.3951643E-003	-4.2746207E-003	0
1.456485563206079E+003	8.5478593E-003	-4.2383485E-003	0
1.466485562953458E+003	8.5096862E-003	-4.1922769E-003	0
1.476485562700836E+003	8.3951643E-003	-4.1273683E-003	0
1.486485562448215E+003	8.3760777E-003	-4.1096145E-003	0
1.496485562195594E+003	8.4715122E-003	-4.0692063E-003	0
1.506485561942973E+003	8.3188172E-003	-4.0314067E-003	0
1.516485561690351E+003	8.4142517E-003	-3.9925259E-003	0
1.526485561437730E+003	8.3951643E-003	-3.9508450E-003	0
1.536485561185109E+003	8.5096862E-003	-3.9465814E-003	0
1.546485560932488E+003	8.5287727E-003	-3.8919186E-003	0
1.556485560679866E+003	8.4333383E-003	-3.8702188E-003	0
1.566485560427245E+003	8.4142517E-003	-3.8517646E-003	0
1.576485560174624E+003	8.4333383E-003	-3.7818935E-003	0
1.586485559922003E+003	8.4333383E-003	-3.8181017E-003	0
1.596485559669381E+003	8.4905988E-003	-3.7349942E-003	0
1.606485559416760E+003	8.4142517E-003	-3.7096674E-003	0
1.616485559164139E+003	8.3760777E-003	-3.6586320E-003	0
1.626485558911518E+003	8.5669467E-003	-3.6529684E-003	0
1.636485558658896E+003	8.5860332E-003	-3.6067693E-003	0
1.646485558406275E+003	8.5096862E-003	-3.6086149E-003	0
1.656485558153654E+003	8.4333383E-003	-3.5759062E-003	0
1.666485557901033E+003	8.4905988E-003	-3.5528066E-003	0
1.676485557648411E+003	8.4715122E-003	-3.5252527E-003	0
1.686485557395790E+003	8.4524257E-003	-3.4860533E-003	0
1.696485557143169E+003	8.4715122E-003	-3.4795629E-003	0
1.706485556890548E+003	8.4524257E-003	-3.4434178E-003	0
1.716485556637926E+003	8.4333383E-003	-3.4112821E-003	0
1.726485556385305E+003	8.4715122E-003	-3.4137003E-003	0
1.736485556132684E+003	8.4905988E-003	-3.3963914E-003	0
1.746485555880063E+003	8.4715122E-003	-3.3493652E-003	0
1.756485555627442E+003	8.5096862E-003	-3.3535012E-003	0
1.766485555374820E+003	8.3760777E-003	-3.3073660E-003	0
1.776485555122199E+003	8.4142517E-003	-3.2943843E-003	0
1.786485554869578E+003	8.4142517E-003	-3.2606574E-003	0
1.796485554616957E+003	8.3951643E-003	-3.2375578E-003	0
1.806485554364335E+003	8.4333383E-003	-3.2244492E-003	0
1.816485554111714E+003	8.4905988E-003	-3.1991226E-003	0
1.826485553859093E+003	8.4524257E-003	-3.1814955E-003	0
1.836485553606472E+003	8.4905988E-003	-3.1331328E-003	0
1.846485553353850E+003	8.4524257E-003	-3.1244147E-003	0
1.856485553101229E+003	8.4524257E-003	-3.1139152E-003	0
1.860052753011114E+003	8.4905988E-003	-3.0980064E-003	0