time/s	Ewe/V	I/mA	error	Ece/V	
6.005299848293362E+001	2.7864254E+000	-2.5024857E-002	0	-3.0442816E-004
6.017319847989711E+001	9.3463548E-003	-7.4801874E+000	0	-1.2317197E-004
6.017359847988700E+001	9.3272654E-003	-7.4184580E+000	0	-4.6820263E-005
6.017399847987690E+001	9.4227158E-003	-7.3637290E+000	0	-8.6444124E-006
6.017439847986680E+001	9.3654450E-003	-7.3096366E+000	0	-2.7732338E-005
6.017479847985669E+001	9.3272654E-003	-7.2549076E+000	0	6.7707289E-005
6.017519847984659E+001	9.4036255E-003	-7.2008152E+000	0	-1.0408404E-004
6.017579847983143E+001	9.2890849E-003	-7.1199946E+000	0	-8.4996114E-005
6.017619847982132E+001	9.4418060E-003	-7.0639925E+000	0	2.9531438E-005
6.017679847980617E+001	9.2890849E-003	-6.9901724E+000	0	1.0588314E-004
6.017739847979101E+001	9.3654450E-003	-6.9144430E+000	0	-6.5908192E-005
6.017779847978090E+001	9.3272654E-003	-6.8622599E+000	0	-1.9952367E-004
6.017839847976575E+001	9.2890849E-003	-6.7998948E+000	0	-1.2317197E-004
6.017879847975564E+001	9.3463548E-003	-6.7496200E+000	0	-1.2317197E-004
6.017939847974048E+001	9.4227158E-003	-6.6834364E+000	0	-8.4996114E-005
6.017999847972533E+001	9.3654450E-003	-6.6064339E+000	0	4.8619364E-005
6.018059847971017E+001	9.3272654E-003	-6.5357952E+000	0	-4.6820263E-005
6.018119847969501E+001	9.3081752E-003	-6.4797940E+000	0	-6.5908192E-005
6.018179847967986E+001	9.2890849E-003	-6.4129739E+000	0	-1.8043575E-004
6.018239847966470E+001	9.3654450E-003	-6.3525171E+000	0	6.7707289E-005
6.018299847964954E+001	9.3463548E-003	-6.2958789E+000	0	-2.7732338E-005
6.018339847963944E+001	9.4036255E-003	-6.2443328E+000	0	-8.4996114E-005
6.018399847962428E+001	9.2699947E-003	-6.1889672E+000	0	-1.0408404E-004
6.018459847960912E+001	9.4227158E-003	-6.1386924E+000	0	2.9531438E-005
6.018519847959396E+001	9.3654450E-003	-6.0788727E+000	0	1.0443513E-005
6.018579847957881E+001	9.2699947E-003	-6.0158710E+000	0	2.9531438E-005
6.018659847955860E+001	9.3654450E-003	-5.9541416E+000	0	-1.2317197E-004
6.018719847954344E+001	9.3272654E-003	-5.8930492E+000	0	-8.4996114E-005
6.018799847952323E+001	9.4036255E-003	-5.8198647E+000	0	6.7707289E-005
6.018879847950302E+001	9.3845353E-003	-5.7543173E+000	0	-4.6820263E-005
6.018959847948281E+001	9.3845353E-003	-5.6976795E+000	0	-4.6820263E-005
6.019019847946765E+001	9.3845353E-003	-5.6474056E+000	0	-4.6820263E-005
6.019079847945250E+001	9.4036255E-003	-5.5939488E+000	0	-8.6444124E-006
6.019159847943229E+001	9.4418060E-003	-5.5309472E+000	0	-8.4996114E-005
6.019239847941208E+001	9.2890849E-003	-5.4717636E+000	0	-1.4225990E-004
6.019319847939187E+001	9.2890849E-003	-5.4176712E+000	0	-6.5908192E-005
6.019399847937166E+001	9.3463548E-003	-5.3578510E+000	0	-6.5908192E-005
6.019479847935145E+001	9.3081752E-003	-5.3031225E+000	0	-2.7732338E-005
6.019559847933124E+001	9.4227158E-003	-5.2490296E+000	0	-1.4225990E-004
6.019639847931103E+001	9.3463548E-003	-5.1923919E+000	0	1.0443513E-005
6.019719847929082E+001	9.4227158E-003	-5.1402078E+000	0	-1.0408404E-004
6.019819847926556E+001	9.3081752E-003	-5.0765700E+000	0	-4.6820263E-005
6.019899847924535E+001	9.2699947E-003	-5.0262957E+000	0	1.0588314E-004
6.019999847922008E+001	9.4036255E-003	-4.9728394E+000	0	-1.0408404E-004
6.020079847919988E+001	9.3272654E-003	-4.9200201E+000	0	-6.5908192E-005
6.020179847917461E+001	9.3654450E-003	-4.8627453E+000	0	6.7707289E-005
6.020279847914935E+001	9.3654450E-003	-4.8003798E+000	0	-1.2317197E-004
6.020379847912409E+001	9.4608963E-003	-4.7450142E+000	0	1.0443513E-005
6.020479847909883E+001	9.2890849E-003	-4.6947403E+000	0	-6.5908192E-005
6.020579847907356E+001	9.2509044E-003	-4.6406474E+000	0	1.0443513E-005
6.020679847904830E+001	9.3463548E-003	-4.5878282E+000	0	-2.7732338E-005
6.020799847901799E+001	9.3845353E-003	-4.5311899E+000	0	-4.6820263E-005
6.020919847898767E+001	9.3463548E-003	-4.4745517E+000	0	-2.7732338E-005
6.021039847895736E+001	9.4036255E-003	-4.4230046E+000	0	-2.7732338E-005
6.021159847892704E+001	9.3654450E-003	-4.3670030E+000	0	4.8619364E-005
6.021279847889673E+001	9.3654450E-003	-4.3154559E+000	0	-2.7732338E-005
6.021419847886136E+001	9.3272654E-003	-4.2537270E+000	0	-6.5908192E-005
6.021559847882600E+001	9.4036255E-003	-4.1932707E+000	0	-8.6444124E-006
6.021699847879063E+001	9.3272654E-003	-4.1296325E+000	0	-8.6444124E-006
6.021859847875021E+001	9.3272654E-003	-4.0729942E+000	0	-2.7732338E-005
6.021999847871484E+001	9.4418060E-003	-4.0189018E+000	0	-4.6820263E-005
6.022139847867948E+001	9.3463548E-003	-3.9603546E+000	0	-4.6820263E-005
6.022299847863906E+001	9.2699947E-003	-3.9062622E+000	0	-4.6820263E-005
6.022479847859358E+001	9.2509044E-003	-3.8483510E+000	0	6.7707289E-005
6.022639847855316E+001	9.3845353E-003	-3.7980771E+000	0	-1.2317197E-004
6.022819847850769E+001	9.3845353E-003	-3.7331657E+000	0	2.9531438E-005
6.022979847846727E+001	9.3845353E-003	-3.6816189E+000	0	-8.6444124E-006
6.023159847842180E+001	9.2318142E-003	-3.6249809E+000	0	1.0443513E-005
6.023379847836623E+001	9.4227158E-003	-3.5575242E+000	0	-2.7732338E-005
6.023599847831065E+001	9.3463548E-003	-3.5066135E+000	0	6.7707289E-005
6.023779847826518E+001	9.4036255E-003	-3.4550667E+000	0	-6.5908192E-005
6.023979847821465E+001	9.4418060E-003	-3.4028831E+000	0	-1.0408404E-004
6.024179847816413E+001	9.2890849E-003	-3.3456089E+000	0	-2.7732338E-005
6.024419847810350E+001	9.3845353E-003	-3.2864254E+000	0	-6.5908192E-005
6.024639847804792E+001	9.4227158E-003	-3.2329690E+000	0	-4.6820263E-005
6.024879847798729E+001	9.3081752E-003	-3.1756947E+000	0	2.9531438E-005
6.025139847792161E+001	9.3272654E-003	-3.1241479E+000	0	-8.4996114E-005
6.025359847786604E+001	9.3081752E-003	-3.0732369E+000	0	-4.6820263E-005
6.025619847780035E+001	9.2699947E-003	-3.0229628E+000	0	-8.6444124E-006
6.025899847772962E+001	9.3845353E-003	-2.9656885E+000	0	4.8619364E-005
6.026179847765889E+001	9.3272654E-003	-2.9109595E+000	0	6.7707289E-005
6.026499847757805E+001	9.3272654E-003	-2.8511395E+000	0	4.8619364E-005
6.026839847749216E+001	9.3654450E-003	-2.7919559E+000	0	-2.7732338E-005
6.027139847741637E+001	9.3845353E-003	-2.7410452E+000	0	-4.6820263E-005
6.027299847737595E+001	9.4036255E-003	-2.8076520E+000	0	1.0443513E-005
6.030319847661303E+001	9.3272654E-003	-2.3070388E+000	0	-4.6820263E-005
6.030759847650188E+001	9.3463548E-003	-2.2565749E+000	0	-1.4225990E-004
6.031239847638062E+001	9.3845353E-003	-2.2043290E+000	0	-8.6444124E-006
6.031739847625431E+001	9.3081752E-003	-2.1539924E+000	0	-8.6444124E-006
6.032259847612295E+001	9.4418060E-003	-2.1021283E+000	0	2.9531438E-005
6.032819847598148E+001	9.2890849E-003	-2.0507097E+000	0	2.2041069E-004
6.033379847584001E+001	9.2699947E-003	-2.0003095E+000	0	-8.6444124E-006
6.033979847568844E+001	9.2127239E-003	-1.9501636E+000	0	2.9531438E-005
6.034619847552676E+001	9.3654450E-003	-1.8988088E+000	0	8.6795211E-005
6.035279847536003E+001	9.3654450E-003	-1.8481538E+000	0	-1.2317197E-004
6.035999847517814E+001	9.3081752E-003	-1.7974989E+000	0	-1.0408404E-004
6.036759847498615E+001	9.2509044E-003	-1.7458258E+000	0	-6.5908192E-005
6.037559847478406E+001	9.2890849E-003	-1.6942165E+000	0	-6.5908192E-005
6.038419847456680E+001	9.4036255E-003	-1.6441344E+000	0	-2.7732338E-005
6.039299847434449E+001	9.3845353E-003	-1.5939887E+000	0	-4.6820263E-005
6.040259847410198E+001	9.3272654E-003	-1.5433974E+000	0	6.7707289E-005
6.041279847384430E+001	9.2509044E-003	-1.4931880E+000	0	-4.6820263E-005
6.042359847357147E+001	9.3463548E-003	-1.4431059E+000	0	-8.6444124E-006
6.043539847327338E+001	9.4036255E-003	-1.3921964E+000	0	6.7707289E-005
6.044819847295003E+001	9.2890849E-003	-1.3419232E+000	0	-1.4225990E-004
6.046159847261151E+001	9.4418060E-003	-1.2918411E+000	0	-1.6134782E-004
6.047659847223258E+001	9.3845353E-003	-1.2418227E+000	0	6.7707289E-005
6.049259847182839E+001	9.3654450E-003	-1.1914223E+000	0	-1.0408404E-004
6.051019847138377E+001	9.3463548E-003	-1.1413403E+000	0	2.9531438E-005
6.052979847088864E+001	9.3845353E-003	-1.0900489E+000	0	-2.7732338E-005
6.055159847033792E+001	9.3272654E-003	-1.0392033E+000	0	-6.5908192E-005
6.057579846972658E+001	9.4418060E-003	-9.8873919E-001	0	-6.5908192E-005
6.060239846905461E+001	9.4036255E-003	-9.3827522E-001	0	1.0443513E-005
6.063199846830685E+001	9.3654450E-003	-8.8793856E-001	0	1.4405898E-004
6.066599846744793E+001	9.3654450E-003	-8.3779263E-001	0	-1.2317197E-004
6.070399846648797E+001	9.4608963E-003	-7.8739232E-001	0	2.9531438E-005
6.074819846537139E+001	9.4418060E-003	-7.3737389E-001	0	-8.6444124E-006
6.079899846408807E+001	9.3654450E-003	-6.8735540E-001	0	-8.6444124E-006
6.085739846261276E+001	9.3272654E-003	-6.3727319E-001	0	-2.7732338E-005
6.092819846082421E+001	9.2699947E-003	-5.8661836E-001	0	4.8619364E-005
6.101339845867187E+001	9.3654450E-003	-5.3621805E-001	0	-1.0408404E-004
6.111499845610524E+001	9.3654450E-003	-4.8619947E-001	0	-6.5908192E-005
6.123939845296263E+001	9.2699947E-003	-4.3618095E-001	0	4.8619364E-005
6.139879844893585E+001	9.2890849E-003	-3.8617453E-001	0	6.7707289E-005
6.160419844374701E+001	9.3272654E-003	-3.3613718E-001	0	1.0443513E-005
6.188219843672414E+001	9.3463548E-003	-2.8609991E-001	0	-1.0408404E-004
6.228119842664455E+001	9.3463548E-003	-2.3603074E-001	0	-8.6444124E-006
6.289399841116392E+001	9.3845353E-003	-1.8589798E-001	0	-4.6820263E-005
6.395239838442649E+001	9.4036255E-003	-1.3587339E-001	0	1.0443513E-005
6.622099832711683E+001	9.4036255E-003	-8.5816979E-002	0	-8.6444124E-006
7.472679811224225E+001	9.3654450E-003	-3.5804208E-002	0	-2.7732338E-005
8.472679785962100E+001	9.2890849E-003	-2.1128722E-002	0	-1.0408404E-004
9.472679760699975E+001	9.3081752E-003	-1.4902121E-002	0	2.9531438E-005
1.047267973543785E+002	9.3845353E-003	-1.1438588E-002	0	-8.4996114E-005
1.147267971017573E+002	9.2509044E-003	-9.3244566E-003	0	-1.2317197E-004
1.247267968491360E+002	9.3845353E-003	-7.8764400E-003	0	-2.7732338E-005
1.347267965965148E+002	9.4418060E-003	-6.7204442E-003	0	-8.6444124E-006
1.447267963438935E+002	9.3272654E-003	-5.9900740E-003	0	1.0443513E-005
1.547267960912723E+002	9.3654450E-003	-5.3818561E-003	0	1.0443513E-005
1.647267958386510E+002	9.3654450E-003	-4.8067211E-003	0	-6.5908192E-005
1.747267955860298E+002	9.3654450E-003	-4.4871964E-003	0	-4.6820263E-005
1.847267953334085E+002	9.3845353E-003	-4.0994622E-003	0	-1.4225990E-004
1.947267950807873E+002	9.2890849E-003	-3.8270100E-003	0	-6.5908192E-005
2.047267948281660E+002	9.3081752E-003	-3.5687531E-003	0	6.7707289E-005
2.147267945755448E+002	9.2890849E-003	-3.3253289E-003	0	1.0443513E-005
2.247267943229235E+002	9.4227158E-003	-3.1333393E-003	0	-1.8043575E-004
2.347267940703023E+002	9.3272654E-003	-2.9912570E-003	0	4.8619364E-005
2.447267938176810E+002	9.4227158E-003	-2.8500024E-003	0	-4.6820263E-005
2.547267935650598E+002	9.3845353E-003	-2.7782610E-003	0	4.8619364E-005
2.647267933124385E+002	9.3845353E-003	-2.5977932E-003	0	-6.5908192E-005
2.747267930598173E+002	9.3845353E-003	-2.4624586E-003	0	4.8619364E-005
2.847267928071960E+002	9.3081752E-003	-2.3684371E-003	0	4.8619364E-005
2.947267925545748E+002	9.3081752E-003	-2.2573555E-003	0	-4.6820263E-005
3.047267923019535E+002	9.3272654E-003	-2.1758110E-003	0	2.9531438E-005
3.147267920493323E+002	9.3463548E-003	-2.0985315E-003	0	-6.5908192E-005
3.247267917967110E+002	9.3845353E-003	-2.0279994E-003	0	-4.6820263E-005
3.347267915440898E+002	9.3463548E-003	-1.9500831E-003	0	1.0443513E-005
3.447267912914685E+002	9.3654450E-003	-1.9049504E-003	0	-4.6820263E-005
3.547267910388473E+002	9.3845353E-003	-1.8571438E-003	0	-2.7732338E-005
3.647267907862260E+002	9.2699947E-003	-1.7811373E-003	0	1.0443513E-005
3.747267905336048E+002	9.4227158E-003	-1.7516642E-003	0	-2.1861160E-004
3.847267902809836E+002	9.2699947E-003	-1.7086321E-003	0	6.7707289E-005
3.947267900283623E+002	9.3654450E-003	-1.6409011E-003	0	-8.6444124E-006
4.047267897757411E+002	9.3272654E-003	-1.5675682E-003	0	1.0443513E-005
4.147267895231198E+002	9.4036255E-003	-1.5742522E-003	0	-8.6444124E-006
4.247267892704986E+002	9.4418060E-003	-1.4907342E-003	0	-8.6444124E-006
4.347267890178773E+002	9.3845353E-003	-1.5128868E-003	0	8.6795211E-005
4.447267887652561E+002	9.2699947E-003	-1.4623433E-003	0	-1.0408404E-004
4.547267885126348E+002	9.4227158E-003	-1.4442645E-003	0	-1.4225990E-004
4.647267882600136E+002	9.4418060E-003	-1.4009143E-003	0	2.9531438E-005
4.747267880073923E+002	9.4036255E-003	-1.3855093E-003	0	8.6795211E-005
4.847267877547711E+002	9.2890849E-003	-1.3466784E-003	0	-2.7732338E-005
4.947267875021498E+002	9.2127239E-003	-1.2866500E-003	0	4.8619364E-005
5.047267872495286E+002	9.3845353E-003	-1.2564127E-003	0	1.4405898E-004
5.147267869969073E+002	9.3272654E-003	-1.2177094E-003	0	2.9531438E-005
5.247267867442861E+002	9.2890849E-003	-1.2411352E-003	0	2.9531438E-005
5.347267864916648E+002	9.3272654E-003	-1.2198101E-003	0	-8.6444124E-006
5.447267862390436E+002	9.3272654E-003	-1.1920556E-003	0	-8.6444124E-006
5.547267859864223E+002	9.3463548E-003	-1.1725766E-003	0	6.7707289E-005
5.647267857338011E+002	9.3845353E-003	-1.1290351E-003	0	-6.5908192E-005
5.747267854811798E+002	9.1554541E-003	-1.1424668E-003	0	4.8619364E-005
5.847267852285586E+002	9.3272654E-003	-1.1343186E-003	0	2.9531438E-005
5.947267849759373E+002	9.3463548E-003	-1.0802103E-003	0	8.6795211E-005
6.047267847233161E+002	9.2890849E-003	-1.1189774E-003	0	-1.4225990E-004
6.147267844706948E+002	9.3845353E-003	-1.0448806E-003	0	-8.6444124E-006
6.247267842180736E+002	9.3272654E-003	-1.0457719E-003	0	6.7707289E-005
6.347267839654523E+002	9.3654450E-003	-1.0124155E-003	0	-1.2317197E-004
6.447267837128311E+002	9.1745444E-003	-1.0236828E-003	0	2.9531438E-005
6.547267834602098E+002	9.3463548E-003	-9.6212648E-004	0	4.8619364E-005
6.647267832075886E+002	9.3081752E-003	-9.5054082E-004	0	2.9531438E-005
6.747267829549673E+002	9.2699947E-003	-9.6384523E-004	0	-2.7732338E-005
6.847267827023461E+002	9.2699947E-003	-9.3087082E-004	0	-4.6820263E-005
6.947267824497249E+002	9.3463548E-003	-9.3087082E-004	0	2.9531438E-005
7.047267821971036E+002	9.3845353E-003	-9.6098066E-004	0	-6.5908192E-005
7.147267819444824E+002	9.2699947E-003	-9.2953397E-004	0	-8.6444124E-006
7.247267816918611E+002	9.2890849E-003	-9.2017645E-004	0	-8.4996114E-005
7.347267814392399E+002	9.3845353E-003	-9.0636290E-004	0	-8.6444124E-006
7.447267811866186E+002	9.1745444E-003	-8.9184911E-004	0	1.0588314E-004
7.547267809339974E+002	9.3463548E-003	-9.2011289E-004	0	4.8619364E-005
7.647267806813761E+002	9.3654450E-003	-8.3754968E-004	0	-4.6820263E-005
7.747267804287549E+002	9.3463548E-003	-8.5569196E-004	0	1.2497106E-004
7.847267801761336E+002	9.3272654E-003	-8.2462729E-004	0	-8.6444124E-006
7.947267799235124E+002	9.2699947E-003	-8.4385171E-004	0	-8.6444124E-006
8.047267796708911E+002	9.4036255E-003	-8.2443637E-004	0	1.0443513E-005
8.147267794182699E+002	9.3081752E-003	-8.1507879E-004	0	-8.6444124E-006
8.247267791656486E+002	9.3081752E-003	-8.4754388E-004	0	-2.7732338E-005
8.347267789130274E+002	9.2890849E-003	-7.6332566E-004	0	-4.6820263E-005
8.447267786604061E+002	9.3654450E-003	-7.8700599E-004	0	4.8619364E-005
8.547267784077849E+002	9.3463548E-003	-7.5995183E-004	0	8.6795211E-005
8.647267781551636E+002	9.2890849E-003	-7.3162449E-004	0	-8.4996114E-005
8.747267779025424E+002	9.3081752E-003	-7.7745749E-004	0	-2.7732338E-005
8.847267776499211E+002	9.3845353E-003	-7.6249812E-004	0	2.9531438E-005
8.947267773972999E+002	9.3845353E-003	-7.4944837E-004	0	-4.6820263E-005
9.047267771446786E+002	9.3845353E-003	-7.6930935E-004	0	2.9531438E-005
9.147267768920574E+002	9.3654450E-003	-7.1889302E-004	0	-2.7732338E-005
9.247267766394361E+002	9.3272654E-003	-7.9439022E-004	0	2.9531438E-005
9.347267763868149E+002	9.3081752E-003	-7.1093597E-004	0	4.8619364E-005
9.447267761341936E+002	9.2509044E-003	-6.9648580E-004	0	4.8619364E-005
9.547267758815724E+002	9.4608963E-003	-6.5396290E-004	0	2.9531438E-005
9.647267756289511E+002	9.4418060E-003	-7.2105741E-004	0	-8.4996114E-005
9.747267753763299E+002	9.3845353E-003	-6.4371416E-004	0	-8.6444124E-006
9.847267751237086E+002	9.3081752E-003	-7.0679822E-004	0	1.0443513E-005
9.947267748710874E+002	9.3272654E-003	-6.7586091E-004	0	-6.5908192E-005
1.004726774618466E+003	9.4036255E-003	-6.9228437E-004	0	1.0443513E-005
1.014726774365845E+003	9.3463548E-003	-6.7191420E-004	0	-1.0408404E-004
1.024726774113224E+003	9.3654450E-003	-6.7121396E-004	0	-6.5908192E-005
1.034726773860602E+003	9.2890849E-003	-6.4218638E-004	0	-8.6444124E-006
1.044726773607981E+003	9.4036255E-003	-6.2939135E-004	0	-6.5908192E-005
1.054726773355360E+003	9.3654450E-003	-6.3403824E-004	0	2.9531438E-005
1.064726773102739E+003	9.4036255E-003	-6.3944905E-004	0	-6.5908192E-005
1.074726772850117E+003	9.4036255E-003	-6.4320484E-004	0	-8.6444124E-006
1.084726772597496E+003	9.4227158E-003	-6.4606941E-004	0	-4.6820263E-005
1.094726772344875E+003	9.4036255E-003	-6.1436824E-004	0	2.9531438E-005
1.104726772092254E+003	9.3845353E-003	-6.0405582E-004	0	1.0443513E-005
1.114726771839632E+003	9.2890849E-003	-6.0341926E-004	0	-1.4225990E-004
1.124726771587011E+003	9.3081752E-003	-5.6802598E-004	0	2.9531438E-005
1.134726771334390E+003	9.3463548E-003	-6.0373754E-004	0	-4.6820263E-005
1.144726771081769E+003	9.3654450E-003	-5.9788110E-004	0	1.2497106E-004
1.154726770829147E+003	9.3463548E-003	-5.6115101E-004	0	-8.4996114E-005
1.164726770576526E+003	9.3845353E-003	-5.8667746E-004	0	4.8619364E-005
1.174726770323905E+003	9.3463548E-003	-6.2366220E-004	0	-1.0408404E-004
1.184726770071284E+003	9.4227158E-003	-5.8845984E-004	0	-4.6820263E-005
1.194726769818662E+003	9.4608963E-003	-5.6713476E-004	0	6.7707289E-005
1.204726769566041E+003	9.3654450E-003	-5.8737770E-004	0	2.9531438E-005
1.214726769313420E+003	9.2127239E-003	-5.6605262E-004	0	4.8619364E-005
1.224726769060799E+003	9.2509044E-003	-5.4154469E-004	0	4.8619364E-005
1.234726768808177E+003	9.3845353E-003	-5.0984346E-004	0	1.0443513E-005
1.244726768555556E+003	9.3463548E-003	-5.5217533E-004	0	1.4405898E-004
1.254726768302935E+003	9.3845353E-003	-5.4479117E-004	0	1.0443513E-005
1.264726768050314E+003	9.3272654E-003	-5.4428191E-004	0	4.8619364E-005
1.274726767797692E+003	9.4036255E-003	-5.3575181E-004	0	8.6795211E-005
1.284726767545071E+003	9.1936337E-003	-5.2989542E-004	0	1.0443513E-005
1.294726767292450E+003	9.3654450E-003	-5.3428777E-004	0	1.0443513E-005
1.304726767039829E+003	9.3272654E-003	-5.3333287E-004	0	8.6795211E-005
1.314726766787207E+003	9.4227158E-003	-5.2683987E-004	0	1.2497106E-004
1.324726766534586E+003	9.2127239E-003	-5.2843132E-004	0	1.0443513E-005
1.334726766281965E+003	9.5181661E-003	-5.3855276E-004	0	8.6795211E-005
1.344726766029344E+003	9.4036255E-003	-5.0933420E-004	0	-6.5908192E-005
1.354726765776722E+003	9.4036255E-003	-5.1398115E-004	0	8.6795211E-005
1.364726765524101E+003	9.3845353E-003	-5.0468720E-004	0	1.0443513E-005
1.374726765271480E+003	9.3272654E-003	-4.7833318E-004	0	-8.6444124E-006
1.384726765018859E+003	9.3845353E-003	-4.9520232E-004	0	2.9531438E-005
1.394726764766237E+003	9.4418060E-003	-5.0787011E-004	0	-6.5908192E-005
1.404726764513616E+003	9.3654450E-003	-5.0265022E-004	0	4.8619364E-005
1.414726764260995E+003	9.3654450E-003	-5.1194412E-004	0	-4.6820263E-005
1.424726764008374E+003	9.3272654E-003	-4.7941535E-004	0	4.8619364E-005
1.434726763755752E+003	9.2509044E-003	-4.6795711E-004	0	-4.6820263E-005
1.444726763503131E+003	9.3081752E-003	-4.7610523E-004	0	-8.6444124E-006
1.454726763250510E+003	9.3081752E-003	-4.9475674E-004	0	4.8619364E-005
1.464726762997889E+003	9.3081752E-003	-4.9953099E-004	0	1.0443513E-005
1.474726762745267E+003	9.3272654E-003	-4.8431699E-004	0	-8.4996114E-005
1.484726762492646E+003	9.3081752E-003	-4.6789349E-004	0	6.7707289E-005
1.494726762240025E+003	9.3654450E-003	-4.3848393E-004	0	-8.6444124E-006
1.504726761987404E+003	9.2699947E-003	-4.8202532E-004	0	4.8619364E-005
1.514726761734782E+003	9.4227158E-003	-4.4739590E-004	0	-8.4996114E-005
1.524726761482161E+003	9.3272654E-003	-4.3568303E-004	0	4.8619364E-005
1.534726761229540E+003	9.4227158E-003	-4.6165509E-004	0	-4.6820263E-005
1.544726760976919E+003	9.2699947E-003	-4.6108218E-004	0	2.9531438E-005
1.554726760724297E+003	9.3272654E-003	-4.5350695E-004	0	6.7707289E-005
1.564726760471676E+003	9.3463548E-003	-3.9366938E-004	0	4.8619364E-005
1.574726760219055E+003	9.2890849E-003	-4.4548619E-004	0	-4.6820263E-005
1.584726759966434E+003	9.4227158E-003	-4.3842025E-004	0	-6.5908192E-005
1.594726759713813E+003	9.2890849E-003	-4.6592011E-004	0	-2.7732338E-005
1.604726759461191E+003	9.4036255E-003	-4.8921857E-004	0	2.9531438E-005
1.614726759208570E+003	9.3845353E-003	-4.3714716E-004	0	8.6795211E-005
1.624726758955949E+003	9.3081752E-003	-4.6814809E-004	0	-8.6444124E-006
1.634726758703328E+003	9.3081752E-003	-4.0207212E-004	0	-1.0408404E-004
1.644726758450706E+003	9.3845353E-003	-4.3689247E-004	0	-4.6820263E-005
1.654726758198085E+003	9.3845353E-003	-4.6292823E-004	0	2.9531438E-005
1.664726757945464E+003	9.3654450E-003	-4.2772587E-004	0	-8.6444124E-006
1.674726757692843E+003	9.3845353E-003	-4.3008119E-004	0	4.8619364E-005
1.684726757440221E+003	9.4418060E-003	-4.4453132E-004	0	-1.4225990E-004
1.694726757187600E+003	9.2890849E-003	-3.9780710E-004	0	-8.6444124E-006
1.704726756934979E+003	9.3654450E-003	-4.2689836E-004	0	-2.7732338E-005
1.714726756682358E+003	9.2127239E-003	-4.1773173E-004	0	-8.6444124E-006
1.724726756429736E+003	9.3845353E-003	-3.9958948E-004	0	6.7707289E-005
1.734726756177115E+003	9.3654450E-003	-4.0964733E-004	0	-1.0408404E-004
1.744726755924494E+003	9.2509044E-003	-4.2428839E-004	0	-4.6820263E-005
1.754726755671873E+003	9.3463548E-003	-4.4529521E-004	0	-8.6444124E-006
1.764726755419251E+003	9.4036255E-003	-3.9411499E-004	0	2.9531438E-005
1.774726755166630E+003	9.3845353E-003	-4.0958365E-004	0	-1.0408404E-004
1.784726754914009E+003	9.3081752E-003	-3.9080481E-004	0	1.4405898E-004
1.794726754661388E+003	9.3654450E-003	-4.2511596E-004	0	-2.7732338E-005
1.804726754408766E+003	9.2699947E-003	-3.7145312E-004	0	-4.6820263E-005
1.814726754156145E+003	9.3272654E-003	-3.8946804E-004	0	-1.0408404E-004
1.824726753903524E+003	9.3845353E-003	-4.3479181E-004	0	6.7707289E-005
1.834726753650903E+003	9.3463548E-003	-3.8768564E-004	0	4.8619364E-005
1.844726753398281E+003	9.3654450E-003	-4.1473983E-004	0	2.9531438E-005
1.854726753145660E+003	9.3845353E-003	-3.7520888E-004	0	1.0588314E-004
1.860052753011114E+003	9.2890849E-003	-3.9175971E-004	0	1.4405898E-004