time/s	Ewe/V	I/mA	error	
7.220579817592807E+001	2.0162195E-002	-1.9469120E-001	0
7.220599817592301E+001	1.7917080E-002	-1.9597971E-001	0
7.220619817591796E+001	1.6511776E-002	-1.9598798E-001	0
7.220659817590786E+001	1.4698213E-002	-1.9598226E-001	0
7.220699817589775E+001	1.3285543E-002	-1.9597781E-001	0
7.220739817588765E+001	1.1872873E-002	-1.9598162E-001	0
7.220779817587754E+001	1.0651104E-002	-1.9598036E-001	0
7.220819817586744E+001	9.2957038E-003	-1.9597845E-001	0
7.220859817585733E+001	8.0166645E-003	-1.9598353E-001	0
7.220899817584723E+001	6.7376252E-003	-1.9597781E-001	0
7.220939817583712E+001	5.4394961E-003	-1.9598673E-001	0
7.220979817582702E+001	4.2749979E-003	-1.9598736E-001	0
7.221019817581691E+001	3.1486794E-003	-1.9598736E-001	0
7.221059817580681E+001	1.9841811E-003	-1.9597909E-001	0
7.221099817579670E+001	8.3877268E-004	-1.9598162E-001	0
7.221139817578660E+001	-2.3027501E-004	-1.9598483E-001	0
7.221179817577649E+001	-1.3184128E-003	-1.9598417E-001	0
7.221219817576639E+001	-2.3874603E-003	-1.9598101E-001	0
7.221259817575628E+001	-3.4565080E-003	-1.9598353E-001	0
7.221299817574618E+001	-4.5446460E-003	-1.9598417E-001	0
7.221359817573102E+001	-5.9954962E-003	-1.9598353E-001	0
7.221399817572092E+001	-7.0072734E-003	-1.9598101E-001	0
7.221439817571081E+001	-8.1717717E-003	-1.9598226E-001	0
7.221499817569565E+001	-9.6989824E-003	-1.9597718E-001	0
7.221559817568050E+001	-1.0978022E-002	-1.9597971E-001	0
7.221599817567039E+001	-1.2008890E-002	-1.9598673E-001	0
7.221659817565524E+001	-1.3383379E-002	-1.9598798E-001	0
7.221719817564008E+001	-1.4738779E-002	-1.9598483E-001	0
7.221759817562997E+001	-1.5769646E-002	-1.9598292E-001	0
7.221799817561987E+001	-1.6781423E-002	-1.9598736E-001	0
7.221859817560471E+001	-1.7945921E-002	-1.9597909E-001	0
7.221919817558955E+001	-1.9358592E-002	-1.9597971E-001	0
7.221979817557440E+001	-2.0752171E-002	-1.9598864E-001	0
7.222039817555924E+001	-2.2031210E-002	-1.9598226E-001	0
7.222099817554408E+001	-2.3252979E-002	-1.9598673E-001	0
7.222159817552892E+001	-2.4665650E-002	-1.9598544E-001	0
7.222219817551377E+001	-2.5811058E-002	-1.9598544E-001	0
7.222279817549861E+001	-2.7013738E-002	-1.9597971E-001	0
7.222339817548345E+001	-2.8235506E-002	-1.9597590E-001	0
7.222399817546830E+001	-2.9380914E-002	-1.9598608E-001	0
7.222459817545314E+001	-3.0736314E-002	-1.9598101E-001	0
7.222539817543293E+001	-3.2168072E-002	-1.9597971E-001	0
7.222599817541777E+001	-3.3485293E-002	-1.9598544E-001	0
7.222679817539756E+001	-3.4878872E-002	-1.9597971E-001	0
7.222739817538240E+001	-3.5909738E-002	-1.9598036E-001	0
7.222819817536219E+001	-3.7360590E-002	-1.9598544E-001	0
7.222879817534704E+001	-3.8525090E-002	-1.9598292E-001	0
7.222939817533188E+001	-3.9670497E-002	-1.9597718E-001	0
7.223019817531167E+001	-4.0892266E-002	-1.9598608E-001	0
7.223079817529651E+001	-4.1942224E-002	-1.9598101E-001	0
7.223139817528136E+001	-4.2954002E-002	-1.9598417E-001	0
7.223219817526115E+001	-4.4404849E-002	-1.9597971E-001	0
7.223299817524094E+001	-4.5473900E-002	-1.9598292E-001	0
7.223359817522578E+001	-4.6523858E-002	-1.9598544E-001	0
7.223439817520557E+001	-4.7783807E-002	-1.9598353E-001	0
7.223519817518536E+001	-4.9005575E-002	-1.9598417E-001	0
7.223599817516515E+001	-5.0246432E-002	-1.9597845E-001	0
7.223679817514494E+001	-5.1544562E-002	-1.9598798E-001	0
7.223759817512473E+001	-5.2651789E-002	-1.9597718E-001	0
7.223839817510452E+001	-5.3663567E-002	-1.9598608E-001	0
7.223919817508431E+001	-5.4961696E-002	-1.9598417E-001	0
7.223999817506410E+001	-5.5992566E-002	-1.9598162E-001	0
7.224079817504389E+001	-5.7061613E-002	-1.9597971E-001	0
7.224159817502368E+001	-5.8245201E-002	-1.9598036E-001	0
7.224239817500347E+001	-5.9314247E-002	-1.9599055E-001	0
7.224339817497821E+001	-6.0536016E-002	-1.9598353E-001	0
7.224439817495295E+001	-6.1700515E-002	-1.9598292E-001	0
7.224539817492769E+001	-6.2960461E-002	-1.9598353E-001	0
7.224639817490242E+001	-6.4105868E-002	-1.9598292E-001	0
7.224739817487716E+001	-6.5327637E-002	-1.9598673E-001	0
7.224839817485190E+001	-6.6492140E-002	-1.9598736E-001	0
7.224939817482664E+001	-6.7523003E-002	-1.9598226E-001	0
7.225039817480138E+001	-6.8668410E-002	-1.9598483E-001	0
7.225159817477106E+001	-6.9832914E-002	-1.9598989E-001	0
7.225259817474580E+001	-7.0901960E-002	-1.9597971E-001	0
7.225379817471548E+001	-7.2009191E-002	-1.9597845E-001	0
7.225499817468517E+001	-7.3040053E-002	-1.9598036E-001	0
7.225599817465991E+001	-7.4261822E-002	-1.9598292E-001	0
7.225719817462959E+001	-7.5330868E-002	-1.9598162E-001	0
7.225859817459423E+001	-7.6514460E-002	-1.9598608E-001	0
7.225999817455886E+001	-7.7640779E-002	-1.9598483E-001	0
7.226139817452349E+001	-7.8843459E-002	-1.9598673E-001	0
7.226279817448813E+001	-7.9950683E-002	-1.9598736E-001	0
7.226399817445781E+001	-8.0981553E-002	-1.9598417E-001	0
7.226559817441739E+001	-8.2126960E-002	-1.9598989E-001	0
7.226699817438202E+001	-8.3176918E-002	-1.9598292E-001	0
7.226859817434161E+001	-8.4226876E-002	-1.9597909E-001	0
7.227019817430119E+001	-8.5295923E-002	-1.9598292E-001	0
7.227199817425571E+001	-8.6498603E-002	-1.9598417E-001	0
7.227399817420519E+001	-8.7701283E-002	-1.9598417E-001	0
7.227579817415972E+001	-8.8827595E-002	-1.9598101E-001	0
7.227779817410919E+001	-8.9877553E-002	-1.9598483E-001	0
7.227979817405867E+001	-9.1003872E-002	-1.9598483E-001	0
7.228159817401320E+001	-9.2072919E-002	-1.9598673E-001	0
7.228439817394246E+001	-9.3294688E-002	-1.9597909E-001	0
7.228639817389194E+001	-9.4325557E-002	-1.9597718E-001	0
7.228879817383131E+001	-9.5451877E-002	-1.9598544E-001	0
7.229119817377068E+001	-9.6463650E-002	-1.9598226E-001	0
7.229379817370500E+001	-9.7494520E-002	-1.9598483E-001	0
7.229639817363932E+001	-9.8563567E-002	-1.9598292E-001	0
7.229919817356858E+001	-9.9747159E-002	-1.9598864E-001	0
7.230219817349280E+001	-1.0079712E-001	-1.9598353E-001	0
7.230559817340691E+001	-1.0180889E-001	-1.9598798E-001	0
7.230859817333112E+001	-1.0283976E-001	-1.9597971E-001	0
7.231219817324018E+001	-1.0390881E-001	-1.9598798E-001	0
7.231579817314923E+001	-1.0497785E-001	-1.9598162E-001	0
7.231959817305324E+001	-1.0598963E-001	-1.9598101E-001	0
7.232339817295724E+001	-1.0700141E-001	-1.9598673E-001	0
7.232739817285619E+001	-1.0801319E-001	-1.9597971E-001	0
7.233159817275009E+001	-1.0902496E-001	-1.9598608E-001	0
7.233619817263389E+001	-1.1005583E-001	-1.9598353E-001	0
7.234119817250757E+001	-1.1110579E-001	-1.9598101E-001	0
7.234619817238126E+001	-1.1215574E-001	-1.9598989E-001	0
7.235199817223474E+001	-1.1322480E-001	-1.9598226E-001	0
7.235779817208822E+001	-1.1429384E-001	-1.9598226E-001	0
7.236379817193665E+001	-1.1530562E-001	-1.9598162E-001	0
7.237019817177497E+001	-1.1635558E-001	-1.9598292E-001	0
7.237739817159309E+001	-1.1742462E-001	-1.9598417E-001	0
7.238479817140615E+001	-1.1853185E-001	-1.9598483E-001	0
7.239319817119394E+001	-1.1956272E-001	-1.9598353E-001	0
7.240119817099185E+001	-1.2068903E-001	-1.9597718E-001	0
7.241099817074428E+001	-1.2183445E-001	-1.9597971E-001	0
7.242279817044619E+001	-1.2286531E-001	-1.9598798E-001	0
7.243399817016325E+001	-1.2395345E-001	-1.9598162E-001	0
7.244879816978937E+001	-1.2496523E-001	-1.9597654E-001	0
7.247699816907698E+001	-1.2599610E-001	-1.9598162E-001	0
7.250639816833427E+001	-1.2498432E-001	-1.9598353E-001	0
7.251999816799071E+001	-1.2387709E-001	-1.9598608E-001	0
7.253099816771282E+001	-1.2278895E-001	-1.9598544E-001	0
7.254159816744505E+001	-1.2162445E-001	-1.9598608E-001	0
7.255039816722274E+001	-1.2057450E-001	-1.9598736E-001	0
7.255779816703580E+001	-1.1944818E-001	-1.9598673E-001	0
7.256679816680844E+001	-1.1837913E-001	-1.9598608E-001	0
7.257359816663666E+001	-1.1732917E-001	-1.9598483E-001	0
7.258099816644972E+001	-1.1626013E-001	-1.9598162E-001	0
7.258839816626278E+001	-1.1519108E-001	-1.9598927E-001	0
7.259539816608594E+001	-1.1408385E-001	-1.9598544E-001	0
7.260359816587879E+001	-1.1297663E-001	-1.9598292E-001	0
7.261159816567670E+001	-1.1196484E-001	-1.9598101E-001	0
7.261879816549481E+001	-1.1093397E-001	-1.9599055E-001	0
7.262599816531292E+001	-1.0992220E-001	-1.9597781E-001	0
7.263379816511588E+001	-1.0891043E-001	-1.9598483E-001	0
7.264179816491378E+001	-1.0787956E-001	-1.9598226E-001	0
7.265099816468137E+001	-1.0677233E-001	-1.9598608E-001	0
7.265979816445906E+001	-1.0572237E-001	-1.9597654E-001	0
7.266979816420644E+001	-1.0467241E-001	-1.9598483E-001	0
7.267959816395887E+001	-1.0362246E-001	-1.9598292E-001	0
7.269079816367594E+001	-1.0249614E-001	-1.9597781E-001	0
7.270259816337784E+001	-1.0148436E-001	-1.9599055E-001	0
7.271379816309491E+001	-1.0041531E-001	-1.9598736E-001	0
7.272739816275134E+001	-9.9365354E-002	-1.9598417E-001	0
7.273979816243809E+001	-9.8334484E-002	-1.9598226E-001	0
7.275619816202379E+001	-9.7265437E-002	-1.9598353E-001	0
7.277399816157413E+001	-9.6196391E-002	-1.9598483E-001	0
7.279159816112951E+001	-9.5184617E-002	-1.9598736E-001	0
7.281199816061417E+001	-9.4153747E-002	-1.9598608E-001	0
7.283379816006345E+001	-9.3141973E-002	-1.9598483E-001	0
7.285779815945716E+001	-9.2092015E-002	-1.9598036E-001	0
7.288059815888118E+001	-9.1080233E-002	-1.9598292E-001	0
7.291419815803238E+001	-9.0068460E-002	-1.9598162E-001	0
7.294939815714315E+001	-8.8999413E-002	-1.9598544E-001	0
7.299339815603162E+001	-8.7968543E-002	-1.9599181E-001	0
7.303859815488977E+001	-8.6956762E-002	-1.9598101E-001	0
7.309459815347509E+001	-8.5925899E-002	-1.9598673E-001	0
7.315639815191389E+001	-8.4914118E-002	-1.9597909E-001	0
7.323499814992829E+001	-8.3902344E-002	-1.9598417E-001	0
7.333099814750312E+001	-8.2871474E-002	-1.9598292E-001	0
7.344459814463335E+001	-8.1859700E-002	-1.9598864E-001	0
7.361439814034384E+001	-8.0809742E-002	-1.9598608E-001	0
7.383759813470533E+001	-7.9778872E-002	-1.9598036E-001	0
7.415239812675281E+001	-7.8767098E-002	-1.9599245E-001	0
7.477119811112061E+001	-7.7736229E-002	-1.9597971E-001	0
8.258159791381331E+001	-7.8824364E-002	-1.9598989E-001	0
8.625539782100532E+001	-7.9836145E-002	-1.9598673E-001	0
9.009659772396844E+001	-8.0867015E-002	-1.9598798E-001	0
9.504499759896134E+001	-8.1897877E-002	-1.9598483E-001	0
1.010817974464590E+002	-8.2909659E-002	-1.9598673E-001	0
1.082055972664966E+002	-8.3463266E-002	-1.9598162E-001	0