time/s	Ewe/V	I/mA	error	Ece/V	
1.860205753007249E+003	-2.2463603E-003	-1.9464298E-001	0	-1.1870657E-003
1.860205953007244E+003	-7.5372895E-003	-1.9597907E-001	0	-1.1870657E-003
1.860206153007239E+003	-1.1661502E-002	-1.9598544E-001	0	2.4483139E-005
1.860206353007234E+003	-1.3436579E-002	-1.9598481E-001	0	-1.3687451E-005
1.860206553007229E+003	-1.5173483E-002	-1.9598226E-001	0	8.1739025E-005
1.860206753007224E+003	-1.6795866E-002	-1.9598417E-001	0	2.4483139E-005
1.860206953007219E+003	-1.8227380E-002	-1.9598353E-001	0	5.3978438E-006
1.860207153007213E+003	-1.9544372E-002	-1.9598481E-001	0	1.0082432E-004
1.860207353007208E+003	-2.0994974E-002	-1.9598417E-001	0	2.4483139E-005
1.860207553007203E+003	-2.2331053E-002	-1.9598672E-001	0	1.3899490E-004
1.860207753007198E+003	-2.3571700E-002	-1.9598162E-001	0	1.5808021E-004
1.860207953007193E+003	-2.4735998E-002	-1.9598544E-001	0	1.3899490E-004
1.860208153007188E+003	-2.5995729E-002	-1.9598353E-001	0	1.0082432E-004
1.860208353007183E+003	-2.7350897E-002	-1.9598608E-001	0	1.0082432E-004
1.860208553007178E+003	-2.8400674E-002	-1.9598608E-001	0	5.3978438E-006
1.860208753007173E+003	-2.9488625E-002	-1.9597653E-001	0	5.3978438E-006
1.860208953007168E+003	-3.0614749E-002	-1.9598290E-001	0	8.1739025E-005
1.860209153007163E+003	-3.1721786E-002	-1.9598417E-001	0	1.3899490E-004
1.860209353007158E+003	-3.2752477E-002	-1.9598353E-001	0	1.3899490E-004
1.860209553007153E+003	-3.4012210E-002	-1.9598608E-001	0	8.1739025E-005
1.860209953007143E+003	-3.6035415E-002	-1.9598417E-001	0	1.7716549E-004
1.860210353007133E+003	-3.8020447E-002	-1.9598734E-001	0	-1.3687451E-005
1.860210553007128E+003	-3.9108399E-002	-1.9598481E-001	0	1.5808021E-004
1.860210953007118E+003	-4.0921651E-002	-1.9598863E-001	0	4.3568434E-005
1.860211353007107E+003	-4.2715814E-002	-1.9598863E-001	0	5.3978438E-006
1.860211553007102E+003	-4.3784678E-002	-1.9598481E-001	0	4.3568434E-005
1.860211953007092E+003	-4.5502495E-002	-1.9598417E-001	0	5.3978438E-006
1.860212353007082E+003	-4.7277573E-002	-1.9598353E-001	0	1.3899490E-004
1.860212753007072E+003	-4.9014479E-002	-1.9598798E-001	0	2.4483139E-005
1.860213153007062E+003	-5.0751381E-002	-1.9598863E-001	0	-1.3687451E-005
1.860213553007052E+003	-5.2450113E-002	-1.9598672E-001	0	8.1739025E-005
1.860213953007042E+003	-5.4129753E-002	-1.9598290E-001	0	-1.3687451E-005
1.860214353007032E+003	-5.5656701E-002	-1.9598162E-001	0	-3.2772747E-005
1.860214753007022E+003	-5.7336345E-002	-1.9598734E-001	0	5.3978438E-006
1.860215153007011E+003	-5.8844209E-002	-1.9598098E-001	0	6.2653729E-005
1.860215553007001E+003	-6.0428418E-002	-1.9598481E-001	0	-5.1858042E-005
1.860215953006991E+003	-6.1764497E-002	-1.9597971E-001	0	8.1739025E-005
1.860216353006981E+003	-6.3425049E-002	-1.9598353E-001	0	-5.1858042E-005
1.860216753006971E+003	-6.4742044E-002	-1.9598162E-001	0	1.7716549E-004
1.860217153006961E+003	-6.6268995E-002	-1.9598544E-001	0	-1.3687451E-005
1.860217553006951E+003	-6.7700505E-002	-1.9598672E-001	0	1.0082432E-004
1.860217953006941E+003	-6.9055676E-002	-1.9598798E-001	0	8.1739025E-005
1.860218353006931E+003	-7.0449017E-002	-1.9598608E-001	0	6.2653729E-005
1.860218753006920E+003	-7.1766004E-002	-1.9598226E-001	0	1.0082432E-004
1.860219153006910E+003	-7.3140264E-002	-1.9598162E-001	0	8.1739025E-005
1.860219553006900E+003	-7.4419081E-002	-1.9598226E-001	0	1.5808021E-004
1.860219953006890E+003	-7.5678810E-002	-1.9598798E-001	0	1.3899490E-004
1.860220353006880E+003	-7.7072151E-002	-1.9598925E-001	0	-5.1858042E-005
1.860220753006870E+003	-7.8312799E-002	-1.9598734E-001	0	-5.1858042E-005
1.860221153006860E+003	-7.9610705E-002	-1.9598672E-001	0	5.3978438E-006
1.860221553006850E+003	-8.0946788E-002	-1.9598162E-001	0	6.2653729E-005
1.860221953006840E+003	-8.2225606E-002	-1.9598353E-001	0	5.3978438E-006
1.860222553006824E+003	-8.3962508E-002	-1.9598290E-001	0	1.7716549E-004
1.860222953006814E+003	-8.5260414E-002	-1.9598734E-001	0	1.0082432E-004
1.860223353006804E+003	-8.6272016E-002	-1.9598672E-001	0	6.2653729E-005
1.860223753006794E+003	-8.7512664E-002	-1.9598417E-001	0	5.3978438E-006
1.860224153006784E+003	-8.8543355E-002	-1.9598798E-001	0	8.1739025E-005
1.860224553006774E+003	-8.9783996E-002	-1.9598608E-001	0	1.5808021E-004
1.860224953006764E+003	-9.0795606E-002	-1.9598481E-001	0	8.1739025E-005
1.860225353006754E+003	-9.1998078E-002	-1.9598863E-001	0	-1.3687451E-005
1.860225753006744E+003	-9.3200549E-002	-1.9599244E-001	0	5.3978438E-006
1.860226153006734E+003	-9.4269410E-002	-1.9598036E-001	0	1.0082432E-004
1.860226753006718E+003	-9.5872708E-002	-1.9598290E-001	0	1.9625080E-004
1.860227153006708E+003	-9.7037002E-002	-1.9598608E-001	0	6.2653729E-005
1.860227753006693E+003	-9.8506689E-002	-1.9598417E-001	0	1.7716549E-004
1.860228153006683E+003	-9.9537380E-002	-1.9598353E-001	0	4.3568434E-005
1.860228553006673E+003	-1.0058716E-001	-1.9598098E-001	0	-3.2772747E-005
1.860229153006658E+003	-1.0201868E-001	-1.9598417E-001	0	-7.0943337E-005
1.860229553006648E+003	-1.0308754E-001	-1.9598734E-001	0	6.2653729E-005
1.860229953006638E+003	-1.0409914E-001	-1.9599435E-001	0	-1.3687451E-005
1.860230553006622E+003	-1.0553066E-001	-1.9598925E-001	0	1.1990962E-004
1.860230953006612E+003	-1.0654226E-001	-1.9598734E-001	0	1.0082432E-004
1.860231553006597E+003	-1.0806921E-001	-1.9598734E-001	0	1.0082432E-004
1.860232153006582E+003	-1.0942437E-001	-1.9598863E-001	0	-1.3687451E-005
1.860232753006567E+003	-1.1068410E-001	-1.9598290E-001	0	8.1739025E-005
1.860233153006557E+003	-1.1173388E-001	-1.9598989E-001	0	1.0082432E-004
1.860233753006542E+003	-1.1303179E-001	-1.9598544E-001	0	6.2653729E-005
1.860234353006526E+003	-1.1440604E-001	-1.9598798E-001	0	-1.3687451E-005
1.860234953006511E+003	-1.1562760E-001	-1.9598290E-001	0	2.4483139E-005
1.860235553006496E+003	-1.1694460E-001	-1.9598417E-001	0	8.1739025E-005
1.860236153006481E+003	-1.1826159E-001	-1.9598544E-001	0	-1.3687451E-005
1.860236753006466E+003	-1.1954041E-001	-1.9598798E-001	0	1.3899490E-004
1.860237353006451E+003	-1.2072379E-001	-1.9598036E-001	0	6.2653729E-005
1.860237953006435E+003	-1.2200261E-001	-1.9599053E-001	0	6.2653729E-005
1.860238553006420E+003	-1.2330052E-001	-1.9598608E-001	0	1.3899490E-004
1.860239153006405E+003	-1.2435029E-001	-1.9598544E-001	0	-7.0943337E-005
1.860239753006390E+003	-1.2561002E-001	-1.9598481E-001	0	-3.2772747E-005
1.860240353006375E+003	-1.2671706E-001	-1.9597717E-001	0	4.3568434E-005
1.860240953006360E+003	-1.2791954E-001	-1.9599116E-001	0	1.0082432E-004
1.860241553006344E+003	-1.2902658E-001	-1.9597971E-001	0	-3.2772747E-005
1.860242153006329E+003	-1.3013361E-001	-1.9598544E-001	0	1.0082432E-004
1.860242753006314E+003	-1.3122156E-001	-1.9598290E-001	0	1.5808021E-004
1.860243353006299E+003	-1.3230951E-001	-1.9598798E-001	0	2.4483139E-005
1.860243953006284E+003	-1.3341655E-001	-1.9598798E-001	0	-9.0028632E-005
1.860244753006264E+003	-1.3479081E-001	-1.9598290E-001	0	5.3978438E-006
1.860245553006243E+003	-1.3629866E-001	-1.9598162E-001	0	-3.2772747E-005
1.860246353006223E+003	-1.3750114E-001	-1.9598290E-001	0	-5.1858042E-005
1.860247153006203E+003	-1.3881813E-001	-1.9598481E-001	0	6.2653729E-005
1.860247953006183E+003	-1.4026873E-001	-1.9598417E-001	0	-1.3687451E-005
1.860248753006163E+003	-1.4141394E-001	-1.9599053E-001	0	-1.0911393E-004
1.860249553006142E+003	-1.4267367E-001	-1.9598417E-001	0	6.2653729E-005
1.860250153006127E+003	-1.4368528E-001	-1.9598226E-001	0	6.2653729E-005
1.860250953006107E+003	-1.4477323E-001	-1.9598734E-001	0	1.7716549E-004
1.860251553006092E+003	-1.4582300E-001	-1.9598989E-001	0	5.3978438E-006
1.860252353006072E+003	-1.4693004E-001	-1.9598162E-001	0	1.5808021E-004
1.860253153006051E+003	-1.4803708E-001	-1.9598608E-001	0	1.0082432E-004
1.860253753006036E+003	-1.4906777E-001	-1.9598672E-001	0	1.7716549E-004
1.860254753006011E+003	-1.5036568E-001	-1.9598226E-001	0	1.0082432E-004
1.860255553005991E+003	-1.5147272E-001	-1.9599244E-001	0	1.0082432E-004
1.860256353005971E+003	-1.5259884E-001	-1.9598734E-001	0	1.3899490E-004
1.860257353005945E+003	-1.5380131E-001	-1.9598098E-001	0	1.1990962E-004
1.860258153005925E+003	-1.5500379E-001	-1.9598608E-001	0	4.3568434E-005
1.860258953005905E+003	-1.5603447E-001	-1.9598162E-001	0	-3.2772747E-005
1.860259953005880E+003	-1.5719877E-001	-1.9598162E-001	0	1.5808021E-004
1.860260953005854E+003	-1.5843941E-001	-1.9598417E-001	0	2.4483139E-005
1.860261753005834E+003	-1.5945102E-001	-1.9598226E-001	0	1.0082432E-004
1.860262753005809E+003	-1.6057715E-001	-1.9598226E-001	0	2.4483139E-005
1.860263753005784E+003	-1.6162692E-001	-1.9598226E-001	0	4.3568434E-005
1.860264753005758E+003	-1.6282940E-001	-1.9598417E-001	0	8.1739025E-005
1.860265753005733E+003	-1.6401277E-001	-1.9598734E-001	0	1.1990962E-004
1.860267153005698E+003	-1.6542521E-001	-1.9598672E-001	0	8.1739025E-005
1.860268353005667E+003	-1.6655134E-001	-1.9598162E-001	0	6.2653729E-005
1.860269353005642E+003	-1.6760111E-001	-1.9598544E-001	0	8.1739025E-005
1.860270353005617E+003	-1.6876541E-001	-1.9598798E-001	0	4.3568434E-005
1.860271753005582E+003	-1.6985336E-001	-1.9599053E-001	0	5.3978438E-006
1.860272953005551E+003	-1.7111309E-001	-1.9598544E-001	0	1.5808021E-004
1.860274353005516E+003	-1.7214377E-001	-1.9597907E-001	0	1.0082432E-004
1.860275753005481E+003	-1.7340352E-001	-1.9598162E-001	0	2.4483139E-005
1.860277353005440E+003	-1.7454873E-001	-1.9599053E-001	0	8.1739025E-005
1.860278953005400E+003	-1.7559850E-001	-1.9598734E-001	0	4.3568434E-005
1.860280553005359E+003	-1.7676280E-001	-1.9598481E-001	0	5.3978438E-006
1.860282353005314E+003	-1.7777440E-001	-1.9598798E-001	0	6.2653729E-005
1.860284753005253E+003	-1.7890052E-001	-1.9598608E-001	0	1.3899490E-004
1.860288153005167E+003	-1.7991214E-001	-1.9599116E-001	0	1.7716549E-004
1.860296353004960E+003	-1.7882417E-001	-1.9598798E-001	0	6.2653729E-005
1.860298153004915E+003	-1.7779349E-001	-1.9598989E-001	0	-5.1858042E-005
1.860299953004869E+003	-1.7670554E-001	-1.9598481E-001	0	6.2653729E-005
1.860301353004834E+003	-1.7563668E-001	-1.9598798E-001	0	6.2653729E-005
1.860302553004803E+003	-1.7454873E-001	-1.9598544E-001	0	8.1739025E-005
1.860303753004773E+003	-1.7336534E-001	-1.9598544E-001	0	5.3978438E-006
1.860304753004748E+003	-1.7229648E-001	-1.9598290E-001	0	5.3978438E-006
1.860305753004723E+003	-1.7120852E-001	-1.9598353E-001	0	-5.1858042E-005
1.860306953004692E+003	-1.6998696E-001	-1.9598544E-001	0	1.0082432E-004
1.860307753004672E+003	-1.6884175E-001	-1.9598481E-001	0	8.1739025E-005
1.860308753004647E+003	-1.6783015E-001	-1.9598989E-001	0	4.3568434E-005
1.860309753004622E+003	-1.6655134E-001	-1.9598734E-001	0	1.1990962E-004
1.860310753004596E+003	-1.6534886E-001	-1.9598290E-001	0	-5.1858042E-005
1.860311553004576E+003	-1.6431817E-001	-1.9598417E-001	0	8.1739025E-005
1.860312553004551E+003	-1.6292483E-001	-1.9598290E-001	0	4.3568434E-005
1.860313353004531E+003	-1.6189414E-001	-1.9598544E-001	0	2.4483139E-005
1.860314353004505E+003	-1.6048171E-001	-1.9598544E-001	0	1.0082432E-004
1.860315153004485E+003	-1.5945102E-001	-1.9598417E-001	0	-5.1858042E-005
1.860315953004465E+003	-1.5836307E-001	-1.9598798E-001	0	4.3568434E-005
1.860316753004445E+003	-1.5721786E-001	-1.9599180E-001	0	6.2653729E-005
1.860317553004425E+003	-1.5616807E-001	-1.9598734E-001	0	4.3568434E-005
1.860318353004404E+003	-1.5508012E-001	-1.9598544E-001	0	6.2653729E-005
1.860319153004384E+003	-1.5404944E-001	-1.9598417E-001	0	6.2653729E-005
1.860319953004364E+003	-1.5290423E-001	-1.9598863E-001	0	2.4483139E-005
1.860320753004344E+003	-1.5166359E-001	-1.9598544E-001	0	1.0082432E-004
1.860321753004318E+003	-1.5046111E-001	-1.9599371E-001	0	1.0082432E-004
1.860322553004298E+003	-1.4927773E-001	-1.9598544E-001	0	-7.0943337E-005
1.860323353004278E+003	-1.4822794E-001	-1.9598481E-001	0	2.4483139E-005
1.860324353004253E+003	-1.4693004E-001	-1.9598989E-001	0	1.9625080E-004
1.860325153004233E+003	-1.4591844E-001	-1.9598481E-001	0	4.3568434E-005
1.860326153004207E+003	-1.4454418E-001	-1.9598608E-001	0	1.1990962E-004
1.860327153004182E+003	-1.4334172E-001	-1.9599244E-001	0	8.1739025E-005
1.860328153004157E+003	-1.4212015E-001	-1.9599116E-001	0	-3.2772747E-005
1.860329153004132E+003	-1.4091769E-001	-1.9598608E-001	0	1.0082432E-004
1.860330153004106E+003	-1.3965794E-001	-1.9598226E-001	0	5.3978438E-006
1.860331153004081E+003	-1.3849366E-001	-1.9598863E-001	0	5.3978438E-006
1.860331953004061E+003	-1.3748205E-001	-1.9598226E-001	0	8.1739025E-005
1.860332953004036E+003	-1.3641319E-001	-1.9598734E-001	0	-1.3687451E-005
1.860333953004010E+003	-1.3522980E-001	-1.9598481E-001	0	-7.0943337E-005
1.860334953003985E+003	-1.3416094E-001	-1.9598989E-001	0	-3.2772747E-005
1.860335953003960E+003	-1.3307299E-001	-1.9598672E-001	0	1.5808021E-004
1.860336953003934E+003	-1.3192777E-001	-1.9598672E-001	0	1.0082432E-004
1.860338153003904E+003	-1.3083982E-001	-1.9598863E-001	0	8.1739025E-005
1.860339353003874E+003	-1.2969461E-001	-1.9598290E-001	0	1.3899490E-004
1.860340553003844E+003	-1.2854940E-001	-1.9598925E-001	0	8.1739025E-005
1.860341553003818E+003	-1.2746145E-001	-1.9598481E-001	0	8.1739025E-005
1.860342953003783E+003	-1.2623990E-001	-1.9598290E-001	0	1.5808021E-004
1.860344153003753E+003	-1.2520920E-001	-1.9598672E-001	0	4.3568434E-005
1.860345353003722E+003	-1.2415943E-001	-1.9598290E-001	0	-3.2772747E-005
1.860346753003687E+003	-1.2307148E-001	-1.9598734E-001	0	1.1990962E-004
1.860348153003652E+003	-1.2196444E-001	-1.9598672E-001	0	4.3568434E-005
1.860349553003616E+003	-1.2083831E-001	-1.9598798E-001	0	2.4483139E-005
1.860350953003581E+003	-1.1976945E-001	-1.9598925E-001	0	2.4483139E-005
1.860352553003540E+003	-1.1873876E-001	-1.9599053E-001	0	6.2653729E-005
1.860353953003505E+003	-1.1770807E-001	-1.9598672E-001	0	1.3899490E-004
1.860355753003460E+003	-1.1648651E-001	-1.9598798E-001	0	1.9625080E-004
1.860357353003419E+003	-1.1541764E-001	-1.9598544E-001	0	8.1739025E-005
1.860359153003374E+003	-1.1440604E-001	-1.9598162E-001	0	6.2653729E-005
1.860360753003333E+003	-1.1337535E-001	-1.9598098E-001	0	-1.3687451E-005
1.860362753003283E+003	-1.1223014E-001	-1.9598544E-001	0	8.1739025E-005
1.860364953003227E+003	-1.1104675E-001	-1.9598226E-001	0	5.3978438E-006
1.860367353003167E+003	-1.0995881E-001	-1.9598925E-001	0	8.1739025E-005
1.860369153003121E+003	-1.0885177E-001	-1.9598608E-001	0	-1.3687451E-005
1.860371753003055E+003	-1.0778291E-001	-1.9598544E-001	0	5.3978438E-006
1.860374553002985E+003	-1.0665678E-001	-1.9598544E-001	0	6.2653729E-005
1.860377153002919E+003	-1.0560700E-001	-1.9598989E-001	0	4.3568434E-005
1.860379953002848E+003	-1.0451905E-001	-1.9599116E-001	0	4.3568434E-005
1.860382953002772E+003	-1.0333566E-001	-1.9598481E-001	0	-1.3687451E-005
1.860386753002676E+003	-1.0224771E-001	-1.9598798E-001	0	-1.3687451E-005
1.860390153002591E+003	-1.0115977E-001	-1.9598608E-001	0	2.4483139E-005
1.860393753002500E+003	-1.0014816E-001	-1.9598544E-001	0	1.7716549E-004
1.860397953002393E+003	-9.9022038E-002	-1.9598481E-001	0	6.2653729E-005
1.860402353002282E+003	-9.7934090E-002	-1.9598162E-001	0	-3.2772747E-005
1.860407153002161E+003	-9.6903399E-002	-1.9598672E-001	0	2.4483139E-005
1.860411953002040E+003	-9.5815443E-002	-1.9597653E-001	0	4.3568434E-005
1.860417953001888E+003	-9.4746582E-002	-1.9598608E-001	0	2.4483139E-005
1.860423753001742E+003	-9.3715891E-002	-1.9598734E-001	0	-1.3687451E-005
1.860431153001555E+003	-9.2666112E-002	-1.9598481E-001	0	4.3568434E-005
1.860438553001368E+003	-9.1635421E-002	-1.9598290E-001	0	6.2653729E-005
1.860446953001156E+003	-9.0490215E-002	-1.9598226E-001	0	6.2653729E-005
1.860457753000883E+003	-8.9421347E-002	-1.9599053E-001	0	6.2653729E-005
1.860469553000585E+003	-8.8409744E-002	-1.9598353E-001	0	1.0082432E-004
1.860481753000277E+003	-8.7398142E-002	-1.9599244E-001	0	1.1990962E-004
1.860496352999908E+003	-8.6367451E-002	-1.9598925E-001	0	1.0082432E-004
1.860513752999468E+003	-8.5336760E-002	-1.9598925E-001	0	5.3978438E-006
1.860535352998922E+003	-8.4325157E-002	-1.9598353E-001	0	4.3568434E-005
1.860561352998266E+003	-8.3275385E-002	-1.9598417E-001	0	5.3978438E-006
1.860591152997513E+003	-8.2244694E-002	-1.9598734E-001	0	6.2653729E-005
1.860635552996391E+003	-8.1233092E-002	-1.9598481E-001	0	6.2653729E-005
1.860693352994931E+003	-8.0202401E-002	-1.9598544E-001	0	1.3899490E-004
1.860778752992774E+003	-7.9190798E-002	-1.9597971E-001	0	6.2653729E-005
1.860909952989459E+003	-7.8160107E-002	-1.9598481E-001	0	-1.3687451E-005
1.861518552974085E+003	-7.7110328E-002	-1.9598608E-001	0	4.3568434E-005
1.862719952943735E+003	-7.8141019E-002	-1.9598734E-001	0	6.2653729E-005
1.863853352915103E+003	-7.9152621E-002	-1.9598417E-001	0	-3.2772747E-005
1.865097752883667E+003	-8.0183312E-002	-1.9599244E-001	0	6.2653729E-005
1.866305752853150E+003	-8.1214003E-002	-1.9598417E-001	0	2.4483139E-005
1.867636952819521E+003	-8.2225606E-002	-1.9598608E-001	0	4.3568434E-005
1.868979152785614E+003	-8.3237208E-002	-1.9598290E-001	0	-3.2772747E-005
1.870505152747064E+003	-8.4286988E-002	-1.9598798E-001	0	4.3568434E-005
1.872145352705629E+003	-8.5317679E-002	-1.9598925E-001	0	1.0082432E-004
1.873906952661127E+003	-8.6329281E-002	-1.9598798E-001	0	4.3568434E-005
1.875634952617474E+003	-8.7359972E-002	-1.9598481E-001	0	6.2653729E-005
1.877744552564182E+003	-8.8371575E-002	-1.9598798E-001	0	-9.0028632E-005
1.879946752508549E+003	-8.9478612E-002	-1.9598989E-001	0	8.1739025E-005
1.882424352445960E+003	-9.0490215E-002	-1.9598672E-001	0	5.3978438E-006
1.885046752379712E+003	-9.1501817E-002	-1.9599116E-001	0	4.3568434E-005
1.887818352309696E+003	-9.2513420E-002	-1.9599053E-001	0	4.3568434E-005
1.890928152231136E+003	-9.3544111E-002	-1.9598162E-001	0	1.1990962E-004
1.894226752147806E+003	-9.4555713E-002	-1.9598672E-001	0	6.2653729E-005
1.898010952052209E+003	-9.5586404E-002	-1.9599053E-001	0	1.3899490E-004
1.901973551952105E+003	-9.6617095E-002	-1.9599497E-001	0	1.3899490E-004
1.906480951838239E+003	-9.7628698E-002	-1.9598863E-001	0	6.2653729E-005
1.912389351688980E+003	-9.8640300E-002	-1.9598989E-001	0	6.2653729E-005
1.918432751536311E+003	-9.9690080E-002	-1.9598989E-001	0	-3.2772747E-005
1.925869151348452E+003	-1.0072077E-001	-1.9598417E-001	0	6.2653729E-005
1.935125151114626E+003	-1.0173237E-001	-1.9599053E-001	0	1.0082432E-004
1.945125150862004E+003	-1.0249585E-001	-1.9598925E-001	0	1.0082432E-004
1.955125150609383E+003	-1.0306845E-001	-1.9599053E-001	0	1.7716549E-004
1.965125150356762E+003	-1.0358380E-001	-1.9598925E-001	0	2.4483139E-005
1.968205550278944E+003	-1.0385101E-001	-1.9598863E-001	0	4.3568434E-005