time/s	Ewe/V	I/mA	error	Ece/V	
6.005299848293362E+001	2.8767633E+000	-2.5007974E-002	0	-1.6680200E-003
6.014319848065497E+001	8.4860558E-003	-4.6794839E+000	0	2.4483139E-005
6.014399848063476E+001	8.4669692E-003	-4.6293874E+000	0	5.3978438E-006
6.014499848060950E+001	8.3906213E-003	-4.5684199E+000	0	2.4483139E-005
6.014599848058424E+001	8.3333608E-003	-4.5101862E+000	0	-5.1858042E-005
6.014699848055898E+001	8.3906213E-003	-4.4544954E+000	0	5.3978438E-006
6.014799848053372E+001	8.4097078E-003	-4.4011564E+000	0	8.1739025E-005
6.014899848050845E+001	8.3715348E-003	-4.3497891E+000	0	5.3978438E-006
6.015019848047814E+001	8.4287953E-003	-4.2906017E+000	0	1.0082432E-004
6.015139848044782E+001	8.4287953E-003	-4.2328763E+000	0	1.1990962E-004
6.015259848041751E+001	8.4287953E-003	-4.1793470E+000	0	-1.3687451E-005
6.015379848038720E+001	8.4287953E-003	-4.1265807E+000	0	1.3899490E-004
6.015499848035688E+001	8.4287953E-003	-4.0764208E+000	0	8.1739025E-005
6.015639848032151E+001	8.4287953E-003	-4.0201578E+000	0	5.3978438E-006
6.015779848028615E+001	8.3524473E-003	-3.9657381E+000	0	8.1739025E-005
6.015919848025078E+001	8.3524473E-003	-3.9132895E+000	0	1.3899490E-004
6.016079848021036E+001	8.3715348E-003	-3.8576624E+000	0	-1.3687451E-005
6.016239848016994E+001	8.4287953E-003	-3.8026707E+000	0	1.0082432E-004
6.016399848012952E+001	8.3524473E-003	-3.7497139E+000	0	4.3568434E-005
6.016559848008910E+001	8.4860558E-003	-3.6992996E+000	0	4.3568434E-005
6.016739848004363E+001	8.4860558E-003	-3.6444986E+000	0	4.3568434E-005
6.016919847999816E+001	8.3333608E-003	-3.5914779E+000	0	4.3568434E-005
6.017099847995269E+001	8.2951868E-003	-3.5401103E+000	0	6.2653729E-005
6.017299847990216E+001	8.4478818E-003	-3.4858816E+000	0	4.3568434E-005
6.017499847985164E+001	8.2951868E-003	-3.4332421E+000	0	2.4483139E-005
6.017699847980111E+001	8.3524473E-003	-3.3810482E+000	0	5.3978438E-006
6.017919847974554E+001	8.4287953E-003	-3.3272009E+000	0	5.3978438E-006
6.018139847968996E+001	8.3142743E-003	-3.2750700E+000	0	5.3978438E-006
6.018379847962933E+001	8.4097078E-003	-3.2196972E+000	0	2.4483139E-005
6.018619847956870E+001	8.4287953E-003	-3.1667397E+000	0	-1.3687451E-005
6.018859847950807E+001	8.3715348E-003	-3.1146727E+000	0	4.3568434E-005
6.019119847944239E+001	8.3524473E-003	-3.0610800E+000	0	8.1739025E-005
6.019379847937671E+001	8.4097078E-003	-3.0086315E+000	0	-3.2772747E-005
6.019639847931103E+001	8.4478818E-003	-2.9577725E+000	0	1.1990962E-004
6.019919847924029E+001	8.3333608E-003	-2.9050696E+000	0	5.3978438E-006
6.020199847916956E+001	8.4287953E-003	-2.8537018E+000	0	-5.1858042E-005
6.020499847909377E+001	8.3906213E-003	-2.8002360E+000	0	1.0082432E-004
6.020799847901799E+001	8.3142743E-003	-2.7489953E+000	0	-1.3687451E-005
6.021119847893715E+001	8.4860558E-003	-2.6969917E+000	0	-1.3687451E-005
6.021439847885631E+001	8.3524473E-003	-2.6456242E+000	0	-7.0943337E-005
6.021759847877547E+001	8.3333608E-003	-2.5955276E+000	0	6.2653729E-005
6.022099847868958E+001	8.4097078E-003	-2.5454314E+000	0	-1.3687451E-005
6.022459847859864E+001	8.5242298E-003	-2.4936187E+000	0	-5.1858042E-005
6.022819847850769E+001	8.4478818E-003	-2.4432681E+000	0	1.1990962E-004
6.023199847841170E+001	8.3906213E-003	-2.3925359E+000	0	-3.2772747E-005
6.023599847831065E+001	8.4287953E-003	-2.3419311E+000	0	1.0082432E-004
6.024019847820455E+001	8.3333608E-003	-2.2898641E+000	0	-1.3687451E-005
6.024459847809339E+001	8.4287953E-003	-2.2376060E+000	0	-7.0943337E-005
6.024919847797719E+001	8.2761003E-003	-2.1857932E+000	0	-1.3687451E-005
6.025379847786098E+001	8.4860558E-003	-2.1356969E+000	0	-5.1858042E-005
6.025859847773972E+001	8.3333608E-003	-2.0856643E+000	0	2.4483139E-005
6.026359847761341E+001	8.3333608E-003	-2.0354407E+000	0	-1.3687451E-005
6.026879847748205E+001	8.5242298E-003	-1.9847085E+000	0	-1.3687451E-005
6.027439847734058E+001	8.3715348E-003	-1.9328321E+000	0	4.3568434E-005
6.028019847719406E+001	8.4287953E-003	-1.8813372E+000	0	8.1739025E-005
6.028619847704249E+001	8.4287953E-003	-1.8307959E+000	0	5.3978438E-006
6.029259847688081E+001	8.4860558E-003	-1.7795554E+000	0	8.1739025E-005
6.029899847671913E+001	8.4669692E-003	-1.7293955E+000	0	1.0082432E-004
6.030579847654735E+001	8.4097078E-003	-1.6788542E+000	0	-3.2772747E-005
6.031319847636041E+001	8.3524473E-003	-1.6285036E+000	0	2.4483139E-005
6.032079847616842E+001	8.4287953E-003	-1.5784706E+000	0	-3.2772747E-005
6.032879847596632E+001	8.3906213E-003	-1.5281202E+000	0	2.4483139E-005
6.033739847574907E+001	8.3524473E-003	-1.4777061E+000	0	-5.1858042E-005
6.034659847551666E+001	8.3142743E-003	-1.4264017E+000	0	6.2653729E-005
6.035619847527414E+001	8.3333608E-003	-1.3761783E+000	0	-3.2772747E-005
6.036639847501647E+001	8.4478818E-003	-1.3261455E+000	0	4.3568434E-005
6.037759847473353E+001	8.2951868E-003	-1.2757314E+000	0	-7.0943337E-005
6.038939847443544E+001	8.4097078E-003	-1.2253808E+000	0	-5.1858042E-005
6.040199847411714E+001	8.4669692E-003	-1.1752210E+000	0	2.4483139E-005
6.041619847375841E+001	8.3715348E-003	-1.1246797E+000	0	2.4483139E-005
6.043139847337443E+001	8.3906213E-003	-1.0738840E+000	0	5.3978438E-006
6.044799847295508E+001	8.4097078E-003	-1.0232791E+000	0	4.3568434E-005
6.046639847249025E+001	8.4097078E-003	-9.7311908E-001	0	8.1739025E-005
6.048679847197491E+001	8.2951868E-003	-9.2257774E-001	0	-7.0943337E-005
6.050919847140904E+001	8.3715348E-003	-8.7254500E-001	0	1.0082432E-004
6.053459847076738E+001	8.3715348E-003	-8.2213092E-001	0	2.4483139E-005
6.056299847004993E+001	8.2951868E-003	-7.7203447E-001	0	-7.0943337E-005
6.059539846923144E+001	8.3524473E-003	-7.2187471E-001	0	2.4483139E-005
6.063219846830179E+001	8.3715348E-003	-6.7139691E-001	0	2.4483139E-005
6.067459846723068E+001	8.4860558E-003	-6.2117344E-001	0	2.4483139E-005
6.072279846601305E+001	8.4097078E-003	-5.7114071E-001	0	4.3568434E-005
6.078079846454784E+001	8.3333608E-003	-5.2098083E-001	0	4.3568434E-005
6.084939846281486E+001	8.3524473E-003	-4.7069377E-001	0	1.7716549E-004
6.093239846071810E+001	8.3715348E-003	-4.2047030E-001	0	2.4483139E-005
6.104619845784327E+001	8.3333608E-003	-3.7045157E-001	0	-5.1858042E-005
6.117979845446825E+001	8.4287953E-003	-3.2031131E-001	0	-3.2772747E-005
6.135559845002717E+001	8.4860558E-003	-2.6996747E-001	0	1.3899490E-004
6.159739844391879E+001	8.4669692E-003	-2.1995451E-001	0	4.3568434E-005
6.196659843459202E+001	8.5051423E-003	-1.6995423E-001	0	8.1739025E-005
6.257599841919728E+001	8.3906213E-003	-1.1994125E-001	0	-1.3687451E-005
6.394739838455280E+001	8.4860558E-003	-6.9896460E-002	0	5.3978438E-006
7.134699819762318E+001	8.4860558E-003	-1.9883189E-002	0	1.0082432E-004
8.134699794500193E+001	8.4097078E-003	-1.0282262E-002	0	-3.2772747E-005
9.134699769238068E+001	8.4097078E-003	-8.7826345E-003	0	2.4483139E-005
1.013469974397594E+002	8.3906213E-003	-6.2109353E-003	0	5.3978438E-006
1.113469971871382E+002	8.3906213E-003	-4.9887104E-003	0	-3.2772747E-005
1.213469969345169E+002	8.4860558E-003	-4.3726186E-003	0	5.3978438E-006
1.313469966818957E+002	8.3333608E-003	-3.4258545E-003	0	6.2653729E-005
1.413469964292744E+002	8.4669692E-003	-3.0761794E-003	0	1.5808021E-004
1.513469961766532E+002	8.4860558E-003	-2.7768395E-003	0	6.2653729E-005
1.613469959240319E+002	8.4860558E-003	-2.5447621E-003	0	4.3568434E-005
1.713469956714107E+002	8.4287953E-003	-2.4825907E-003	0	6.2653729E-005
1.813469954187894E+002	8.4860558E-003	-2.2815673E-003	0	6.2653729E-005
1.913469951661682E+002	8.4287953E-003	-2.1370519E-003	0	6.2653729E-005
2.013469949135470E+002	8.4287953E-003	-1.9890363E-003	0	6.2653729E-005
2.113469946609257E+002	8.3906213E-003	-1.9681002E-003	0	6.2653729E-005
2.213469944083045E+002	8.4860558E-003	-1.8489751E-003	0	6.2653729E-005
2.313469941556832E+002	8.4287953E-003	-1.8851201E-003	0	-5.1858042E-005
2.413469939030620E+002	8.4860558E-003	-1.6291158E-003	0	6.2653729E-005
2.513469936504407E+002	8.4097078E-003	-1.5519899E-003	0	6.2653729E-005
2.613469933978195E+002	8.4287953E-003	-1.7901127E-003	0	-1.3687451E-005
2.713469931451982E+002	8.4478818E-003	-1.3817659E-003	0	-3.2772747E-005
2.813469928925770E+002	8.4669692E-003	-1.4774095E-003	0	1.3899490E-004
2.913469926399557E+002	8.4478818E-003	-1.9097469E-003	0	2.4483139E-005
3.013469923873345E+002	8.3142743E-003	-1.7058598E-003	0	6.2653729E-005
3.113469921347132E+002	8.4287953E-003	-1.4721277E-003	0	2.4483139E-005
3.213469918820920E+002	8.5242298E-003	-1.4818003E-003	0	5.3978438E-006
3.313469916294707E+002	8.4669692E-003	-1.3281214E-003	0	1.1990962E-004
3.413469913768495E+002	8.5051423E-003	-1.2744770E-003	0	1.1990962E-004
3.513469911242282E+002	8.4478818E-003	-1.4088108E-003	0	1.3899490E-004
3.613469908716070E+002	8.4478818E-003	-1.1844331E-003	0	-3.2772747E-005
3.713469906189857E+002	8.4860558E-003	-1.0919076E-003	0	-1.3687451E-005
3.813469903663645E+002	8.4097078E-003	-9.6699182E-004	0	2.4483139E-005
3.913469901137432E+002	8.4097078E-003	-9.3880144E-004	0	2.4483139E-005
4.013469898611220E+002	8.4860558E-003	-9.6552825E-004	0	-1.3687451E-005
4.113469896085007E+002	8.4097078E-003	-9.8563684E-004	0	6.2653729E-005
4.213469893558795E+002	8.4287953E-003	-9.2499261E-004	0	6.2653729E-005
4.313469891032582E+002	8.3715348E-003	-1.0028820E-003	0	2.4483139E-005
4.413469888506370E+002	8.4478818E-003	-1.0200635E-003	0	8.1739025E-005
4.513469885980157E+002	8.4669692E-003	-1.0399814E-003	0	8.1739025E-005
4.613469883453945E+002	8.4478818E-003	-1.0054276E-003	0	4.3568434E-005
4.713469880927732E+002	8.3715348E-003	-9.1538363E-004	0	-9.0028632E-005
4.813469878401520E+002	8.4097078E-003	-9.3358336E-004	0	1.0082432E-004
4.913469875875307E+002	8.4097078E-003	-8.0268586E-004	0	1.1990962E-004
5.013469873349095E+002	8.5051423E-003	-8.6390285E-004	0	1.0082432E-004
5.113469870822883E+002	8.4287953E-003	-9.0800202E-004	0	-7.0943337E-005
5.213469868296670E+002	8.4478818E-003	-7.4770499E-004	0	-1.3687451E-005
5.313469865770458E+002	8.3906213E-003	-7.0761493E-004	0	2.4483139E-005
5.413469863244245E+002	8.4287953E-003	-6.3736172E-004	0	5.3978438E-006
5.513469860718033E+002	8.4478818E-003	-6.3214364E-004	0	-1.3687451E-005
5.613469858191820E+002	8.3524473E-003	-5.8772624E-004	0	2.4483139E-005
5.713469855665608E+002	8.4287953E-003	-9.7195536E-004	0	-5.1858042E-005
5.813469853139395E+002	8.3906213E-003	-6.2438013E-004	0	5.3978438E-006
5.913469850613183E+002	8.4478818E-003	-6.5944315E-004	0	6.2653729E-005
6.013469848086970E+002	8.4097078E-003	-6.3755253E-004	0	2.4483139E-005
6.113469845560758E+002	8.4860558E-003	-7.1811472E-004	0	5.3978438E-006
6.213469843034545E+002	8.4860558E-003	-6.9628784E-004	0	4.3568434E-005
6.313469840508333E+002	8.4478818E-003	-6.9507875E-004	0	-1.3687451E-005
6.413469837982120E+002	8.4669692E-003	-5.9472612E-004	0	-3.2772747E-005
6.513469835455908E+002	8.5242298E-003	-5.2536378E-004	0	-7.0943337E-005
6.613469832929695E+002	8.4860558E-003	-5.4203626E-004	0	2.4483139E-005
6.713469830403483E+002	8.4097078E-003	-1.1056529E-003	0	-9.0028632E-005
6.813469827877270E+002	8.5624028E-003	-6.8826979E-004	0	1.1990962E-004
6.913469825351058E+002	8.4860558E-003	-5.8607169E-004	0	-5.1858042E-005
7.013469822824845E+002	8.4478818E-003	-6.0516229E-004	0	1.1990962E-004
7.113469820298633E+002	8.4669692E-003	-6.0758047E-004	0	-3.2772747E-005
7.213469817772420E+002	8.3524473E-003	-5.5845408E-004	0	-7.0943337E-005
7.313469815246208E+002	8.3715348E-003	-5.9478980E-004	0	1.0082432E-004
7.413469812719995E+002	8.3715348E-003	-5.8104459E-004	0	8.1739025E-005
7.513469810193783E+002	8.5051423E-003	-5.1499129E-004	0	1.0082432E-004
7.613469807667570E+002	8.4097078E-003	-6.3182542E-004	0	5.3978438E-006
7.713469805141358E+002	8.4669692E-003	-5.1034591E-004	0	4.3568434E-005
7.813469802615145E+002	8.5051423E-003	-6.5085234E-004	0	-1.0911393E-004
7.913469800088933E+002	8.4669692E-003	-5.5565411E-004	0	1.5808021E-004
8.013469797562720E+002	8.5242298E-003	-6.6046126E-004	0	4.3568434E-005
8.113469795036508E+002	8.3906213E-003	-6.3666166E-004	0	-1.3687451E-005
8.213469792510296E+002	8.4669692E-003	-5.6927203E-004	0	5.3978438E-006
8.313469789984083E+002	8.4669692E-003	-5.6036317E-004	0	1.1990962E-004
8.413469787457871E+002	8.4287953E-003	-5.3191825E-004	0	5.3978438E-006
8.513469784931658E+002	8.4860558E-003	-4.9100077E-004	0	4.3568434E-005
8.613469782405446E+002	8.4287953E-003	-5.5132690E-004	0	5.3978438E-006
8.713469779879233E+002	8.4097078E-003	-6.1858934E-004	0	6.2653729E-005
8.813469777353021E+002	8.4287953E-003	-1.1566246E-003	0	5.3978438E-006
8.913469774826808E+002	8.3333608E-003	-5.6068134E-004	0	1.0082432E-004
9.013469772300596E+002	8.5051423E-003	-5.1537307E-004	0	6.2653729E-005
9.113469769774383E+002	8.4478818E-003	-5.9498067E-004	0	1.3899490E-004
9.213469767248171E+002	8.4097078E-003	-4.8680085E-004	0	2.4483139E-005
9.313469764721958E+002	8.3906213E-003	-5.5298145E-004	0	8.1739025E-005
9.413469762195746E+002	8.3906213E-003	-5.0652778E-004	0	5.3978438E-006
9.513469759669533E+002	8.4287953E-003	-4.4486526E-004	0	1.0082432E-004
9.613469757143321E+002	8.4860558E-003	-4.3735633E-004	0	-3.2772747E-005
9.713469754617108E+002	8.3333608E-003	-4.0598420E-004	0	-1.3687451E-005
9.813469752090896E+002	8.5242298E-003	-4.0967503E-004	0	2.4483139E-005
9.913469749564683E+002	8.3906213E-003	-4.1992031E-004	0	-5.1858042E-005
1.001346974703847E+003	8.3524473E-003	-4.2132026E-004	0	-1.0911393E-004
1.011346974451226E+003	8.4478818E-003	-4.1355676E-004	0	4.3568434E-005
1.021346974198605E+003	8.3333608E-003	-4.0833867E-004	0	2.4483139E-005
1.031346973945983E+003	8.4287953E-003	-1.6468699E-003	0	-5.1858042E-005
1.041346973693362E+003	8.3333608E-003	-6.5167958E-004	0	8.1739025E-005
1.051346973440741E+003	8.3906213E-003	-4.5453783E-004	0	2.4483139E-005
1.061346973188120E+003	8.3715348E-003	-3.6137595E-004	0	1.3899490E-004
1.071346972935498E+003	8.4478818E-003	-3.8562092E-004	0	-7.0943337E-005
1.081346972682877E+003	8.4860558E-003	-6.4970693E-004	0	4.3568434E-005
1.091346972430256E+003	8.4287953E-003	-3.4139451E-004	0	4.3568434E-005
1.101346972177635E+003	8.4097078E-003	-3.8899362E-004	0	-3.2772747E-005
1.111346971925013E+003	8.3715348E-003	-5.1034591E-004	0	4.3568434E-005
1.121346971672392E+003	8.4097078E-003	-5.0722773E-004	0	5.3978438E-006
1.131346971419771E+003	8.4287953E-003	-4.3385642E-004	0	1.1990962E-004
1.141346971167150E+003	8.4097078E-003	-5.5998133E-004	0	-7.0943337E-005
1.151346970914528E+003	8.4097078E-003	-3.8409373E-004	0	6.2653729E-005
1.161346970661907E+003	8.3715348E-003	-3.7855742E-004	0	6.2653729E-005
1.171346970409286E+003	8.4860558E-003	-3.4686716E-004	0	2.4483139E-005
1.181346970156665E+003	8.4287953E-003	-3.8173920E-004	0	-3.2772747E-005
1.191346969904043E+003	8.3906213E-003	-4.3792906E-004	0	8.1739025E-005
1.201346969651422E+003	8.3524473E-003	-4.8088279E-004	0	-7.0943337E-005
1.211346969398801E+003	8.4478818E-003	-3.5590332E-004	0	4.3568434E-005
1.221346969146180E+003	8.3715348E-003	-3.4285811E-004	0	4.3568434E-005
1.231346968893558E+003	8.5051423E-003	-4.3264730E-004	0	6.2653729E-005
1.241346968640937E+003	8.3715348E-003	-4.5924686E-004	0	-1.0911393E-004
1.251346968388316E+003	8.3333608E-003	-3.8943902E-004	0	4.3568434E-005
1.261346968135695E+003	8.5242298E-003	-3.4355809E-004	0	4.3568434E-005
1.271346967883073E+003	8.3906213E-003	-3.2955836E-004	0	-1.3687451E-005
1.281346967630452E+003	8.4097078E-003	-3.1982220E-004	0	1.1990962E-004
1.291346967377831E+003	8.3333608E-003	-3.6952127E-004	0	2.4483139E-005
1.301346967125210E+003	8.4097078E-003	-3.4788530E-004	0	2.4483139E-005
1.311346966872588E+003	8.4287953E-003	-3.9427530E-004	0	8.1739025E-005
1.321346966619967E+003	8.3906213E-003	-3.6780309E-004	0	-3.2772747E-005
1.331346966367346E+003	8.4669692E-003	-4.1260224E-004	0	5.3978438E-006
1.341346966114725E+003	8.4287953E-003	-4.0668415E-004	0	4.3568434E-005
1.351346965862103E+003	8.4287953E-003	-3.3433101E-004	0	1.3899490E-004
1.361346965609482E+003	8.3524473E-003	-5.2211841E-004	0	5.3978438E-006
1.371346965356861E+003	8.3906213E-003	-3.2510390E-004	0	4.3568434E-005
1.381346965104240E+003	8.4287953E-003	-3.9153901E-004	0	2.4483139E-005
1.391346964851618E+003	8.4097078E-003	-3.4502169E-004	0	1.1990962E-004
1.401346964598997E+003	8.4287953E-003	-3.2656750E-004	0	-1.3687451E-005
1.411346964346376E+003	8.4860558E-003	-3.8555733E-004	0	1.3899490E-004
1.421346964093755E+003	8.4097078E-003	-3.4915801E-004	0	4.3568434E-005
1.431346963841133E+003	8.4097078E-003	-3.6659403E-004	0	-5.1858042E-005
1.441346963588512E+003	8.4669692E-003	-4.2329295E-004	0	1.0082432E-004
1.451346963335891E+003	8.3524473E-003	-3.5520332E-004	0	-1.0911393E-004
1.461346963083270E+003	8.4097078E-003	-3.3643097E-004	0	1.1990962E-004
1.471346962830648E+003	8.4287953E-003	-2.6891407E-004	0	8.1739025E-005
1.481346962578027E+003	8.5624028E-003	-4.1215681E-004	0	5.3978438E-006
1.491346962325406E+003	8.4478818E-003	-3.7779380E-004	0	5.3978438E-006
1.501346962072785E+003	8.4478818E-003	-2.7795025E-004	0	4.3568434E-005
1.511346961820163E+003	8.4287953E-003	-4.0063885E-004	0	-1.3687451E-005
1.521346961567542E+003	8.3906213E-003	-3.7817561E-004	0	2.1533608E-004
1.531346961314921E+003	8.4097078E-003	-5.1397312E-004	0	4.3568434E-005
1.541346961062300E+003	8.4287953E-003	-2.9468630E-004	0	5.3978438E-006
1.551346960809678E+003	8.3524473E-003	-3.1594047E-004	0	-1.3687451E-005
1.561346960557057E+003	8.4478818E-003	-3.9815711E-004	0	-9.0028632E-005
1.571346960304436E+003	8.4669692E-003	-4.0420241E-004	0	1.0082432E-004
1.581346960051815E+003	8.4097078E-003	-3.9987522E-004	0	5.3978438E-006
1.591346959799193E+003	8.3906213E-003	-7.6316838E-004	0	8.1739025E-005
1.601346959546572E+003	8.4097078E-003	-3.5405793E-004	0	2.4483139E-005
1.611346959293951E+003	8.3715348E-003	-2.9761353E-004	0	6.2653729E-005
1.621346959041330E+003	8.4669692E-003	-3.1969493E-004	0	1.7716549E-004
1.631346958788708E+003	8.3524473E-003	-2.9882259E-004	0	2.4483139E-005
1.641346958536087E+003	8.5051423E-003	-2.8539560E-004	0	6.2653729E-005
1.651346958283466E+003	8.4478818E-003	-2.7655027E-004	0	4.3568434E-005
1.661346958030845E+003	8.3715348E-003	-3.3153105E-004	0	-3.2772747E-005
1.671346957778223E+003	8.3333608E-003	-3.5889421E-004	0	4.3568434E-005
1.681346957525602E+003	8.4860558E-003	-3.7066670E-004	0	2.4483139E-005
1.691346957272981E+003	8.4860558E-003	-2.7731390E-004	0	4.3568434E-005
1.701346957020360E+003	8.3333608E-003	-2.7960478E-004	0	8.1739025E-005
1.711346956767738E+003	8.4287953E-003	-3.2224035E-004	0	4.3568434E-005
1.721346956515117E+003	8.4478818E-003	-3.0728607E-004	0	2.4483139E-005
1.731346956262496E+003	8.4478818E-003	-2.9188636E-004	0	1.0082432E-004
1.741346956009875E+003	8.3906213E-003	-2.9379543E-004	0	-3.2772747E-005
1.751346955757253E+003	8.3715348E-003	-3.5660333E-004	0	-1.3687451E-005
1.761346955504632E+003	8.4669692E-003	-3.7162122E-004	0	-7.0943337E-005
1.771346955252011E+003	8.3524473E-003	-3.4743984E-004	0	8.1739025E-005
1.781346954999390E+003	8.5624028E-003	-2.9042273E-004	0	2.4483139E-005
1.791346954746768E+003	8.4478818E-003	-3.1046782E-004	0	8.1739025E-005
1.801346954494147E+003	8.3524473E-003	-3.7983013E-004	0	5.3978438E-006
1.811346954241526E+003	8.4287953E-003	-2.7209584E-004	0	4.3568434E-005
1.821346953988905E+003	8.4669692E-003	-3.1301321E-004	0	1.7716549E-004
1.831346953736283E+003	8.3524473E-003	-2.8565011E-004	0	8.1739025E-005
1.841346953483662E+003	8.4097078E-003	-4.0242061E-004	0	2.4483139E-005
1.851346953231041E+003	8.4097078E-003	-2.8628646E-004	0	5.3978438E-006
1.860052753011114E+003	8.5242298E-003	-3.7524840E-004	0	8.1739025E-005