time/s	Ewe/V	I/mA	error	Ece/V	
6.005299848293362E+001	2.8316040E+000	-2.5007974E-002	0	-1.5878610E-003
6.014319848065497E+001	8.3715348E-003	-5.1704016E+000	0	1.0082432E-004
6.014379848063982E+001	8.3524473E-003	-5.1010427E+000	0	-5.1858042E-005
6.014439848062466E+001	8.3715348E-003	-5.0317473E+000	0	-7.0943337E-005
6.014499848060950E+001	8.3524473E-003	-4.9668384E+000	0	-5.1858042E-005
6.014559848059434E+001	8.3906213E-003	-4.9026284E+000	0	-1.3687451E-005
6.014619848057919E+001	8.3524473E-003	-4.8400717E+000	0	6.2653729E-005
6.014679848056403E+001	8.3142743E-003	-4.7794218E+000	0	5.3978438E-006
6.014739848054887E+001	8.3715348E-003	-4.7204251E+000	0	2.4483139E-005
6.014799848053372E+001	8.3524473E-003	-4.6628909E+000	0	-1.3687451E-005
6.014859848051856E+001	8.3715348E-003	-4.6066279E+000	0	1.1990962E-004
6.014919848050340E+001	8.4669692E-003	-4.5518909E+000	0	1.1990962E-004
6.014979848048824E+001	8.3715348E-003	-4.4991879E+000	0	1.0082432E-004
6.015039848047309E+001	8.4669692E-003	-4.4476929E+000	0	1.3899490E-004
6.015099848045793E+001	8.4287953E-003	-4.3968973E+000	0	4.3568434E-005
6.015179848043772E+001	8.4097078E-003	-4.3307800E+000	0	2.4483139E-005
6.015259848041751E+001	8.2951868E-003	-4.2678418E+000	0	2.4483139E-005
6.015339848039730E+001	8.4097078E-003	-4.2070651E+000	0	-1.3687451E-005
6.015419848037709E+001	8.3142743E-003	-4.1481318E+000	0	-3.2772747E-005
6.015499848035688E+001	8.3142743E-003	-4.0896440E+000	0	-1.3687451E-005
6.015579848033667E+001	8.4860558E-003	-4.0339527E+000	0	-1.3687451E-005
6.015659848031646E+001	8.3524473E-003	-3.9806144E+000	0	8.1739025E-005
6.015739848029625E+001	8.3333608E-003	-3.9282296E+000	0	-5.1858042E-005
6.015819848027604E+001	8.4287953E-003	-3.8768616E+000	0	-1.3687451E-005
6.015919848025078E+001	8.3906213E-003	-3.8152583E+000	0	5.3978438E-006
6.016019848022552E+001	8.4097078E-003	-3.7558169E+000	0	-1.0911393E-004
6.016119848020026E+001	8.3333608E-003	-3.6992359E+000	0	4.3568434E-005
6.016219848017499E+001	8.2951868E-003	-3.6441810E+000	0	-3.2772747E-005
6.016319848014973E+001	8.3715348E-003	-3.5909696E+000	0	-9.0028632E-005
6.016419848012447E+001	8.4287953E-003	-3.5400465E+000	0	1.0082432E-004
6.016519848009921E+001	8.2761003E-003	-3.4893782E+000	0	4.3568434E-005
6.016639848006889E+001	8.4097078E-003	-3.4317164E+000	0	6.2653729E-005
6.016759848003858E+001	8.3715348E-003	-3.3767884E+000	0	2.4483139E-005
6.016879848000826E+001	8.3524473E-003	-3.3235133E+000	0	1.3899490E-004
6.016999847997795E+001	8.4860558E-003	-3.2726543E+000	0	4.3568434E-005
6.017139847994258E+001	8.4097078E-003	-3.2150564E+000	0	1.0082432E-004
6.017279847990721E+001	8.3715348E-003	-3.1603827E+000	0	6.2653729E-005
6.017419847987185E+001	8.4287953E-003	-3.1078069E+000	0	-1.3687451E-005
6.017559847983648E+001	8.3524473E-003	-3.0575202E+000	0	-5.1858042E-005
6.017719847979606E+001	8.4860558E-003	-3.0027189E+000	0	-3.2772747E-005
6.017879847975564E+001	8.3715348E-003	-2.9496350E+000	0	-7.0943337E-005
6.018059847971017E+001	8.3715348E-003	-2.8930540E+000	0	1.0082432E-004
6.018239847966470E+001	8.3142743E-003	-2.8400970E+000	0	6.2653729E-005
6.018419847961923E+001	8.3715348E-003	-2.7891741E+000	0	-1.0911393E-004
6.018619847956870E+001	8.3333608E-003	-2.7340555E+000	0	4.3568434E-005
6.018819847951818E+001	8.4097078E-003	-2.6830056E+000	0	8.1739025E-005
6.019039847946260E+001	8.4287953E-003	-2.6285861E+000	0	1.7716549E-004
6.019259847940702E+001	8.4287953E-003	-2.5775998E+000	0	1.1990962E-004
6.019499847934640E+001	8.4287953E-003	-2.5250242E+000	0	2.4483139E-005
6.019739847928577E+001	8.4860558E-003	-2.4744828E+000	0	6.2653729E-005
6.019999847922008E+001	8.4287953E-003	-2.4220979E+000	0	6.2653729E-005
6.020279847914935E+001	8.3906213E-003	-2.3695858E+000	0	6.2653729E-005
6.020559847907862E+001	8.2951868E-003	-2.3192987E+000	0	-1.3687451E-005
6.020859847900283E+001	8.3906213E-003	-2.2679946E+000	0	4.3568434E-005
6.021179847892199E+001	8.3333608E-003	-2.2172625E+000	0	-5.1858042E-005
6.021499847884115E+001	8.4860558E-003	-2.1672297E+000	0	1.0082432E-004
6.021859847875021E+001	8.2761003E-003	-2.1156077E+000	0	8.1739025E-005
6.022239847865421E+001	8.4669692E-003	-2.0633500E+000	0	-1.2819923E-004
6.022639847855316E+001	8.4287953E-003	-2.0112827E+000	0	4.3568434E-005
6.023059847844706E+001	8.4478818E-003	-1.9605507E+000	0	4.3568434E-005
6.023499847833591E+001	8.4097078E-003	-1.9092463E+000	0	-3.2772747E-005
6.023959847821970E+001	8.5242298E-003	-1.8584507E+000	0	-9.0028632E-005
6.024439847809845E+001	8.4860558E-003	-1.8081000E+000	0	1.3899490E-004
6.024979847796203E+001	8.2570137E-003	-1.7569230E+000	0	-5.1858042E-005
6.025519847782562E+001	8.4478818E-003	-1.7067631E+000	0	5.3978438E-006
6.026099847767910E+001	8.4097078E-003	-1.6564125E+000	0	-3.2772747E-005
6.026719847752247E+001	8.2951868E-003	-1.6047903E+000	0	6.2653729E-005
6.027399847735069E+001	8.3715348E-003	-1.5536133E+000	0	-1.3687451E-005
6.028099847717385E+001	8.3524473E-003	-1.5030085E+000	0	5.3978438E-006
6.028839847698691E+001	8.3142743E-003	-1.4524672E+000	0	6.2653729E-005
6.029639847678482E+001	8.3142743E-003	-1.4017351E+000	0	5.3978438E-006
6.030479847657261E+001	8.4287953E-003	-1.3513845E+000	0	-1.0911393E-004
6.031419847633515E+001	8.2951868E-003	-1.2997624E+000	0	8.1739025E-005
6.032419847608253E+001	8.3524473E-003	-1.2493482E+000	0	2.4483139E-005
6.033479847581475E+001	8.3715348E-003	-1.1986798E+000	0	2.4483139E-005
6.034619847552676E+001	8.3524473E-003	-1.1473756E+000	0	-3.2772747E-005
6.035859847521351E+001	8.2570137E-003	-1.0972792E+000	0	1.0082432E-004
6.037199847487500E+001	8.3715348E-003	-1.0470557E+000	0	6.2653729E-005
6.038639847451122E+001	8.3906213E-003	-9.9695939E-001	0	-1.3687451E-005
6.040199847411714E+001	8.3524473E-003	-9.4667238E-001	0	5.3978438E-006
6.041999847366242E+001	8.4478818E-003	-8.9587671E-001	0	8.1739025E-005
6.043919847317738E+001	8.4669692E-003	-8.4578037E-001	0	-3.2772747E-005
6.046079847263172E+001	8.3906213E-003	-7.9574758E-001	0	1.0082432E-004
6.048519847201533E+001	8.3524473E-003	-7.4501562E-001	0	6.2653729E-005
6.051259847132314E+001	8.4287953E-003	-6.9485575E-001	0	-3.2772747E-005
6.054379847053497E+001	8.4287953E-003	-6.4399654E-001	0	2.4483139E-005
6.058059846960532E+001	8.2951868E-003	-5.9370953E-001	0	5.3978438E-006
6.062299846853421E+001	8.3333608E-003	-5.4304105E-001	0	-3.2772747E-005
6.067359846725594E+001	8.4478818E-003	-4.9281752E-001	0	4.3568434E-005
6.073379846573516E+001	8.3906213E-003	-4.4278479E-001	0	2.4483139E-005
6.081719846362830E+001	8.3715348E-003	-3.9271560E-001	0	8.1739025E-005
6.091419846117788E+001	8.4860558E-003	-3.4268352E-001	0	4.3568434E-005
6.104199845794938E+001	8.4097078E-003	-2.9249239E-001	0	4.3568434E-005
6.121959845346282E+001	8.3715348E-003	-2.4245398E-001	0	6.2653729E-005
6.148179844683909E+001	8.5242298E-003	-1.9237100E-001	0	1.0082432E-004
6.191439843591070E+001	8.4287953E-003	-1.4228803E-001	0	1.1990962E-004
6.278139841400844E+001	8.4478818E-003	-9.2198685E-002	0	1.1990962E-004
6.567459834092006E+001	8.4478818E-003	-4.2185459E-002	0	6.2653729E-005
7.567459808829881E+001	8.4287953E-003	-1.4103547E-002	0	4.3568434E-005
8.567459783567756E+001	8.4097078E-003	-8.1629325E-003	0	8.1739025E-005
9.567459758305631E+001	8.4478818E-003	-5.7019405E-003	0	1.1990962E-004
1.056745973304351E+002	8.3524473E-003	-4.3491372E-003	0	-3.2772747E-005
1.156745970778138E+002	8.4860558E-003	-3.5508338E-003	0	6.2653729E-005
1.256745968251926E+002	8.4287953E-003	-2.9817449E-003	0	8.1739025E-005
1.356745965725713E+002	8.5051423E-003	-2.5809705E-003	0	4.3568434E-005
1.456745963199501E+002	8.4669692E-003	-2.3058122E-003	0	5.3978438E-006
1.556745960673288E+002	8.4287953E-003	-2.0485353E-003	0	1.0082432E-004
1.656745958147076E+002	8.4287953E-003	-1.8938378E-003	0	8.1739025E-005
1.756745955620863E+002	8.5051423E-003	-1.7285775E-003	0	2.4483139E-005
1.856745953094651E+002	8.4860558E-003	-1.6263158E-003	0	2.4483139E-005
1.956745950568438E+002	8.4097078E-003	-1.5215087E-003	0	8.1739025E-005
2.056745948042226E+002	8.3524473E-003	-1.4264378E-003	0	4.3568434E-005
2.156745945516013E+002	8.3333608E-003	-1.3446666E-003	0	-9.0028632E-005
2.256745942989801E+002	8.4478818E-003	-1.2764496E-003	0	1.0082432E-004
2.356745940463588E+002	8.4287953E-003	-1.2151690E-003	0	1.3899490E-004
2.456745937937376E+002	8.4287953E-003	-1.1622881E-003	0	2.1533608E-004
2.556745935411163E+002	8.4478818E-003	-1.1233434E-003	0	4.3568434E-005
2.656745932884951E+002	8.4287953E-003	-1.0736444E-003	0	-3.2772747E-005
2.756745930358738E+002	8.4860558E-003	-1.0400451E-003	0	4.3568434E-005
2.856745927832526E+002	8.4287953E-003	-1.0171999E-003	0	8.1739025E-005
2.956745925306313E+002	8.4669692E-003	-9.6183736E-004	0	5.3978438E-006
3.056745922780101E+002	8.3333608E-003	-9.4032870E-004	0	-7.0943337E-005
3.156745920253888E+002	8.4287953E-003	-9.0628385E-004	0	4.3568434E-005
3.256745917727676E+002	8.5433163E-003	-8.8566606E-004	0	8.1739025E-005
3.356745915201464E+002	8.3142743E-003	-8.6523913E-004	0	1.3899490E-004
3.456745912675251E+002	8.4669692E-003	-8.4678497E-004	0	2.4483139E-005
3.556745910149039E+002	8.4097078E-003	-8.1929466E-004	0	6.2653729E-005
3.656745907622826E+002	8.4860558E-003	-8.2387635E-004	0	8.1739025E-005
3.756745905096614E+002	8.3906213E-003	-7.9842226E-004	0	2.4483139E-005
3.856745902570401E+002	8.4669692E-003	-7.8213162E-004	0	2.4483139E-005
3.956745900044189E+002	8.4478818E-003	-7.6781376E-004	0	8.1739025E-005
4.056745897517976E+002	8.4287953E-003	-7.5756857E-004	0	2.4483139E-005
4.156745894991764E+002	8.3906213E-003	-7.3701434E-004	0	4.3568434E-005
4.256745892465551E+002	8.3715348E-003	-7.3663250E-004	0	8.1739025E-005
4.356745889939339E+002	8.4287953E-003	-7.1747840E-004	0	-5.1858042E-005
4.456745887413126E+002	8.3906213E-003	-6.9997867E-004	0	2.4483139E-005
4.556745884886914E+002	8.4669692E-003	-6.8432442E-004	0	4.3568434E-005
4.656745882360701E+002	8.3906213E-003	-6.4658874E-004	0	6.2653729E-005
4.756745879834489E+002	8.3906213E-003	-6.7471550E-004	0	-1.3687451E-005
4.856745877308276E+002	8.4860558E-003	-6.5626134E-004	0	-7.0943337E-005
4.956745874782064E+002	8.5624028E-003	-6.6625199E-004	0	-1.3687451E-005
5.056745872255851E+002	8.4097078E-003	-6.5244321E-004	0	6.2653729E-005
5.156745869729639E+002	8.4097078E-003	-6.2648003E-004	0	6.2653729E-005
5.256745867203426E+002	8.3524473E-003	-6.2438013E-004	0	6.2653729E-005
5.356745864677214E+002	8.4478818E-003	-6.0885318E-004	0	6.2653729E-005
5.456745862151001E+002	8.4097078E-003	-6.3678890E-004	0	4.3568434E-005
5.556745859624789E+002	8.4669692E-003	-5.9230800E-004	0	-1.3687451E-005
5.656745857098576E+002	8.4669692E-003	-5.9803517E-004	0	8.1739025E-005
5.756745854572364E+002	8.4669692E-003	-5.7353562E-004	0	5.3978438E-006
5.856745852046151E+002	8.3715348E-003	-5.8390811E-004	0	6.2653729E-005
5.956745849519939E+002	8.4287953E-003	-5.5476325E-004	0	6.2653729E-005
6.056745846993726E+002	8.5051423E-003	-5.5342691E-004	0	5.3978438E-006
6.156745844467514E+002	8.4287953E-003	-5.7506288E-004	0	1.0082432E-004
6.256745841941301E+002	8.4478818E-003	-5.3688174E-004	0	1.5808021E-004
6.356745839415089E+002	8.4478818E-003	-5.4133619E-004	0	8.1739025E-005
6.456745836888877E+002	8.3333608E-003	-5.5520871E-004	0	5.3978438E-006
6.556745834362664E+002	8.4860558E-003	-5.4318167E-004	0	2.4483139E-005
6.656745831836452E+002	8.4669692E-003	-5.5170874E-004	0	2.4483139E-005
6.756745829310239E+002	8.4478818E-003	-5.2453653E-004	0	6.2653729E-005
6.856745826784027E+002	8.4097078E-003	-4.9640978E-004	0	6.2653729E-005
6.956745824257814E+002	8.3906213E-003	-5.1581848E-004	0	4.3568434E-005
7.056745821731602E+002	8.4287953E-003	-5.1200041E-004	0	1.0082432E-004
7.156745819205389E+002	8.4287953E-003	-5.2065478E-004	0	-5.1858042E-005
7.256745816679177E+002	8.4287953E-003	-5.1798217E-004	0	1.3899490E-004
7.356745814152964E+002	8.4669692E-003	-4.7636469E-004	0	4.3568434E-005
7.456745811626752E+002	8.5051423E-003	-5.1855482E-004	0	8.1739025E-005
7.556745809100539E+002	8.4478818E-003	-4.8858265E-004	0	1.7716549E-004
7.656745806574327E+002	8.4860558E-003	-4.9532799E-004	0	-1.3687451E-005
7.756745804048114E+002	8.4669692E-003	-4.9812789E-004	0	6.2653729E-005
7.856745801521902E+002	8.4097078E-003	-4.9023714E-004	0	4.3568434E-005
7.956745798995689E+002	8.4287953E-003	-4.8960082E-004	0	6.2653729E-005
8.056745796469477E+002	8.4478818E-003	-8.8617508E-004	0	-5.1858042E-005
8.156745793943264E+002	8.3333608E-003	-4.8279183E-004	0	-1.3687451E-005
8.256745791417052E+002	8.3906213E-003	-4.8381000E-004	0	1.3899490E-004
8.356745788890839E+002	8.4669692E-003	-4.5988319E-004	0	4.3568434E-005
8.456745786364627E+002	8.4669692E-003	-4.7305567E-004	0	5.3978438E-006
8.556745783838414E+002	8.4287953E-003	-4.6898302E-004	0	2.4483139E-005
8.656745781312202E+002	8.3715348E-003	-4.5402875E-004	0	-1.3687451E-005
8.756745778785989E+002	8.4287953E-003	-4.7388289E-004	0	1.0082432E-004
8.856745776259777E+002	8.5051423E-003	-4.3442915E-004	0	-3.2772747E-005
8.956745773733564E+002	8.4669692E-003	-4.4893794E-004	0	-5.1858042E-005
9.056745771207352E+002	8.3906213E-003	-4.3665632E-004	0	8.1739025E-005
9.156745768681139E+002	8.3715348E-003	-4.3773814E-004	0	2.4483139E-005
9.256745766154927E+002	8.4478818E-003	-4.3302911E-004	0	1.0082432E-004
9.356745763628714E+002	8.4478818E-003	-4.2914739E-004	0	4.3568434E-005
9.456745761102502E+002	8.3906213E-003	-4.4887426E-004	0	4.3568434E-005
9.556745758576290E+002	8.4669692E-003	-4.2851106E-004	0	5.3978438E-006
9.656745756050077E+002	8.4669692E-003	-4.2399295E-004	0	-9.0028632E-005
9.756745753523865E+002	8.4478818E-003	-4.2125664E-004	0	6.2653729E-005
9.856745750997652E+002	8.4097078E-003	-4.3003829E-004	0	5.3978438E-006
9.956745748471440E+002	8.4287953E-003	-4.0674783E-004	0	6.2653729E-005
1.005674574594523E+003	8.4669692E-003	-4.2462928E-004	0	4.3568434E-005
1.015674574341901E+003	8.4287953E-003	-4.0916595E-004	0	-1.3687451E-005
1.025674574089280E+003	8.3524473E-003	-4.1323862E-004	0	1.1990962E-004
1.035674573836659E+003	8.4478818E-003	-4.1298405E-004	0	8.1739025E-005
1.045674573584038E+003	8.3906213E-003	-4.2138388E-004	0	1.7716549E-004
1.055674573331416E+003	8.4669692E-003	-4.1253862E-004	0	1.1990962E-004
1.065674573078795E+003	8.4478818E-003	-4.0725688E-004	0	-1.3687451E-005
1.075674572826174E+003	8.4097078E-003	-4.0910230E-004	0	6.2653729E-005
1.085674572573553E+003	8.3715348E-003	-3.9911160E-004	0	8.1739025E-005
1.095674572320931E+003	8.4287953E-003	-4.0840232E-004	0	-9.0028632E-005
1.105674572068310E+003	8.4478818E-003	-3.8358459E-004	0	6.2653729E-005
1.115674571815689E+003	8.4478818E-003	-3.7715747E-004	0	1.0082432E-004
1.125674571563068E+003	8.3524473E-003	-3.8829361E-004	0	8.1739025E-005
1.135674571310446E+003	8.4287953E-003	-3.9395716E-004	0	1.3899490E-004
1.145674571057825E+003	8.3524473E-003	-3.8269375E-004	0	4.3568434E-005
1.155674570805204E+003	8.3715348E-003	-3.8441189E-004	0	8.1739025E-005
1.165674570552583E+003	8.4478818E-003	-3.7957559E-004	0	6.2653729E-005
1.175674570299961E+003	8.5051423E-003	-3.5615786E-004	0	6.2653729E-005
1.185674570047340E+003	8.4478818E-003	-3.8568457E-004	0	4.3568434E-005
1.195674569794719E+003	8.4860558E-003	-3.6124868E-004	0	4.3568434E-005
1.205674569542098E+003	8.4287953E-003	-3.7798472E-004	0	-5.1858042E-005
1.215674569289476E+003	8.4478818E-003	-3.7569387E-004	0	-3.2772747E-005
1.225674569036855E+003	8.4669692E-003	-3.7416662E-004	0	2.4483139E-005
1.235674568784234E+003	8.4287953E-003	-3.5972142E-004	0	6.2653729E-005
1.245674568531613E+003	8.4669692E-003	-3.5571243E-004	0	5.3978438E-006
1.255674568278992E+003	8.4669692E-003	-3.8422100E-004	0	-9.0028632E-005
1.265674568026370E+003	8.4097078E-003	-3.5844874E-004	0	5.3978438E-006
1.275674567773749E+003	8.5433163E-003	-3.5380336E-004	0	1.1990962E-004
1.285674567521128E+003	8.5051423E-003	-3.5310339E-004	0	6.2653729E-005
1.295674567268507E+003	8.3524473E-003	-3.6926672E-004	0	-5.1858042E-005
1.305674567015885E+003	8.4097078E-003	-3.6449407E-004	0	1.0082432E-004
1.315674566763264E+003	8.4287953E-003	-5.1187316E-004	0	6.2653729E-005
1.325674566510643E+003	8.4287953E-003	-3.4158540E-004	0	2.4483139E-005
1.335674566258022E+003	8.4287953E-003	-3.4024907E-004	0	6.2653729E-005
1.345674566005400E+003	8.3142743E-003	-3.4495810E-004	0	6.2653729E-005
1.355674565752779E+003	8.4478818E-003	-3.4915801E-004	0	-1.3687451E-005
1.365674565500158E+003	8.4097078E-003	-3.6023051E-004	0	1.0082432E-004
1.375674565247537E+003	8.4478818E-003	-3.4005815E-004	0	2.4483139E-005
1.385674564994915E+003	8.4478818E-003	-3.6124868E-004	0	4.3568434E-005
1.395674564742294E+003	8.4287953E-003	-3.6042143E-004	0	1.3899490E-004
1.405674564489673E+003	8.4287953E-003	-3.4203086E-004	0	2.4483139E-005
1.415674564237052E+003	8.5051423E-003	-3.3910363E-004	0	-7.0943337E-005
1.425674563984430E+003	8.3715348E-003	-3.1708591E-004	0	5.3978438E-006
1.435674563731809E+003	8.4478818E-003	-3.3655824E-004	0	-3.2772747E-005
1.445674563479188E+003	8.4097078E-003	-3.3318560E-004	0	5.3978438E-006
1.455674563226567E+003	8.3333608E-003	-3.3095837E-004	0	-3.2772747E-005
1.465674562973945E+003	8.4478818E-003	-3.2739478E-004	0	1.7716549E-004
1.475674562721324E+003	8.3906213E-003	-3.1664045E-004	0	-7.0943337E-005
1.485674562468703E+003	8.3524473E-003	-3.2014039E-004	0	-3.2772747E-005
1.495674562216082E+003	8.3906213E-003	-3.4546715E-004	0	-1.0911393E-004
1.505674561963460E+003	8.4287953E-003	-3.1116782E-004	0	-9.0028632E-005
1.515674561710839E+003	8.4860558E-003	-3.5577605E-004	0	8.1739025E-005
1.525674561458218E+003	8.4478818E-003	-3.1880403E-004	0	-5.1858042E-005
1.535674561205597E+003	8.4287953E-003	-3.2472209E-004	0	2.4483139E-005
1.545674560952975E+003	8.4478818E-003	-3.0664972E-004	0	-1.3687451E-005
1.555674560700354E+003	8.4097078E-003	-3.1893133E-004	0	-5.1858042E-005
1.565674560447733E+003	8.4287953E-003	-3.1549501E-004	0	2.4483139E-005
1.575674560195112E+003	8.5051423E-003	-3.1231326E-004	0	2.4483139E-005
1.585674559942490E+003	8.4287953E-003	-3.1664045E-004	0	-1.3687451E-005
1.595674559689869E+003	8.4478818E-003	-3.3439466E-004	0	1.1990962E-004
1.605674559437248E+003	8.5242298E-003	-2.9258634E-004	0	6.2653729E-005
1.615674559184627E+003	8.3906213E-003	-2.8488648E-004	0	5.3978438E-006
1.625674558932005E+003	8.4287953E-003	-3.0308616E-004	0	2.4483139E-005
1.635674558679384E+003	8.3906213E-003	-3.0754061E-004	0	4.3568434E-005
1.645674558426763E+003	8.5624028E-003	-3.0194072E-004	0	5.3978438E-006
1.655674558174142E+003	8.4097078E-003	-3.2370395E-004	0	1.0082432E-004
1.665674557921520E+003	8.4097078E-003	-2.9112276E-004	0	-1.3687451E-005
1.675674557668899E+003	8.4097078E-003	-3.0353162E-004	0	4.3568434E-005
1.685674557416278E+003	8.3715348E-003	-2.9856808E-004	0	-9.0028632E-005
1.695674557163657E+003	8.4860558E-003	-2.9144090E-004	0	-1.3687451E-005
1.705674556911035E+003	8.5051423E-003	-3.0703153E-004	0	1.0082432E-004
1.715674556658414E+003	8.3906213E-003	-2.9869532E-004	0	4.3568434E-005
1.725674556405793E+003	8.4478818E-003	-2.7871388E-004	0	8.1739025E-005
1.735674556153172E+003	8.4097078E-003	-3.0359524E-004	0	5.3978438E-006
1.745674555900550E+003	8.4287953E-003	-2.9888624E-004	0	4.3568434E-005
1.755674555647929E+003	8.4097078E-003	-2.7546848E-004	0	2.3442139E-004
1.765674555395308E+003	8.3906213E-003	-2.9805896E-004	0	4.3568434E-005
1.775674555142687E+003	8.4097078E-003	-3.0499522E-004	0	1.3899490E-004
1.785674554890065E+003	8.4287953E-003	-2.9984076E-004	0	1.1990962E-004
1.795674554637444E+003	8.4669692E-003	-2.4905990E-004	0	6.2653729E-005
1.805674554384823E+003	8.4287953E-003	-2.9608628E-004	0	4.3568434E-005
1.815674554132202E+003	8.4478818E-003	-2.9214090E-004	0	6.2653729E-005
1.825674553879580E+003	8.4669692E-003	-2.9665901E-004	0	-5.1858042E-005
1.835674553626959E+003	8.3524473E-003	-2.8297745E-004	0	8.1739025E-005
1.845674553374338E+003	8.4287953E-003	-2.8584103E-004	0	4.3568434E-005
1.855674553121717E+003	8.5242298E-003	-2.9067730E-004	0	4.3568434E-005
1.860052753011114E+003	8.3906213E-003	-2.7935024E-004	0	-1.3687451E-005