time/s	Ewe/V	I/mA	error	Ece/V	
6.005299848293362E+001	2.9440050E+000	-2.5023418E-002	0	-7.1791554E-004
6.017319847989711E+001	9.2939930E-003	-3.6779312E+001	0	-3.2594202E-005
6.017339847989206E+001	9.3512684E-003	-3.6721386E+001	0	4.3764623E-005
6.017359847988700E+001	9.2558088E-003	-3.6652630E+001	0	5.5852106E-006
6.017399847987690E+001	9.2558088E-003	-3.6537403E+001	0	5.5852106E-006
6.017419847987185E+001	9.3321763E-003	-3.6479473E+001	0	-3.2594202E-005
6.017439847986680E+001	9.3894526E-003	-3.6427910E+001	0	-7.0773618E-005
6.017459847986174E+001	9.3130842E-003	-3.6366161E+001	0	-5.1683910E-005
6.017479847985669E+001	9.3130842E-003	-3.6315868E+001	0	-1.4713245E-004
6.017499847985164E+001	9.3130842E-003	-3.6252846E+001	0	-3.2594202E-005
6.017519847984659E+001	9.3512684E-003	-3.6196823E+001	0	2.4674917E-005
6.017539847984153E+001	9.3130842E-003	-3.6138260E+001	0	6.2854328E-005
6.017559847983648E+001	9.2749009E-003	-3.6085423E+001	0	-1.0895303E-004
6.017579847983143E+001	9.2176255E-003	-3.6027489E+001	0	1.7739256E-004
6.017599847982638E+001	9.3703605E-003	-3.5977196E+001	0	-1.4713245E-004
6.017619847982132E+001	9.3321763E-003	-3.5917358E+001	0	-7.0773618E-005
6.017639847981627E+001	9.3321763E-003	-3.5861336E+001	0	-5.1683910E-005
6.017659847981122E+001	9.3321763E-003	-3.5800220E+001	0	-8.9863323E-005
6.017679847980617E+001	9.3894526E-003	-3.5749931E+001	0	-1.0895303E-004
6.017699847980111E+001	9.3321763E-003	-3.5695183E+001	0	4.3764623E-005
6.017719847979606E+001	9.3130842E-003	-3.5643620E+001	0	-7.0773618E-005
6.017739847979101E+001	9.2939930E-003	-3.5588234E+001	0	-5.1683910E-005
6.017759847978596E+001	9.2749009E-003	-3.5532848E+001	0	-1.0895303E-004
6.017779847978090E+001	9.2176255E-003	-3.5478737E+001	0	6.2854328E-005
6.017799847977585E+001	9.3321763E-003	-3.5428448E+001	0	1.2012345E-004
6.017819847977080E+001	9.2176255E-003	-3.5371792E+001	0	2.4674917E-005
6.017859847976069E+001	9.3130842E-003	-3.5269936E+001	0	-5.1683910E-005
6.017899847975059E+001	9.3130842E-003	-3.5162346E+001	0	-1.3504496E-005
6.017939847974048E+001	9.3321763E-003	-3.5055401E+001	0	6.2854328E-005
6.017959847973543E+001	9.2558088E-003	-3.5002563E+001	0	-7.0773618E-005
6.017999847972533E+001	9.3512684E-003	-3.4910255E+001	0	-1.0895303E-004
6.018019847972027E+001	9.2749009E-003	-3.4858051E+001	0	6.2854328E-005
6.018039847971522E+001	9.3321763E-003	-3.4800125E+001	0	-1.0895303E-004
6.018079847970512E+001	9.3703605E-003	-3.4700813E+001	0	-5.1683910E-005
6.018119847969501E+001	9.2367167E-003	-3.4609142E+001	0	-3.2594202E-005
6.018139847968996E+001	9.2749009E-003	-3.4553123E+001	0	-1.8531186E-004
6.018179847967986E+001	9.4276359E-003	-3.4456360E+001	0	-1.0895303E-004
6.018219847966975E+001	9.3321763E-003	-3.4367233E+001	0	2.4674917E-005
6.018239847966470E+001	9.2558088E-003	-3.4308029E+001	0	-1.3504496E-005
6.018279847965459E+001	9.3130842E-003	-3.4210629E+001	0	-7.0773618E-005
6.018319847964449E+001	9.2176255E-003	-3.4117050E+001	0	-1.3504496E-005
6.018359847963438E+001	9.3130842E-003	-3.4028564E+001	0	-1.3504496E-005
6.018379847962933E+001	9.3130842E-003	-3.3977634E+001	0	-1.3504496E-005
6.018419847961923E+001	9.4085438E-003	-3.3880234E+001	0	-1.2804274E-004
6.018459847960912E+001	9.4276359E-003	-3.3782833E+001	0	-1.3504496E-005
6.018499847959902E+001	9.3894526E-003	-3.3694984E+001	0	2.4674917E-005
6.018539847958891E+001	9.3512684E-003	-3.3609043E+001	0	5.5852106E-006
6.018579847957881E+001	9.2749009E-003	-3.3517372E+001	0	-1.3504496E-005
6.018619847956870E+001	9.3321763E-003	-3.3426975E+001	0	4.3764623E-005
6.018659847955860E+001	9.3703605E-003	-3.3336578E+001	0	2.4674917E-005
6.018699847954849E+001	9.2367167E-003	-3.3250000E+001	0	2.4674917E-005
6.018739847953839E+001	9.2367167E-003	-3.3164696E+001	0	5.5852106E-006
6.018779847952828E+001	9.4276359E-003	-3.3074295E+001	0	-7.0773618E-005
6.018819847951818E+001	9.2749009E-003	-3.2983902E+001	0	-1.0895303E-004
6.018859847950807E+001	9.2939930E-003	-3.2897961E+001	0	-8.9863323E-005
6.018899847949797E+001	9.2939930E-003	-3.2816475E+001	0	-1.0895303E-004
6.018939847948786E+001	9.3321763E-003	-3.2734989E+001	0	6.2854328E-005
6.018979847947776E+001	9.4085438E-003	-3.2646503E+001	0	5.5852106E-006
6.019019847946765E+001	9.2939930E-003	-3.2568199E+001	0	-3.2594202E-005
6.019059847945755E+001	9.1985334E-003	-3.2484806E+001	0	5.5852106E-006
6.019099847944744E+001	9.3321763E-003	-3.2397594E+001	0	-1.3504496E-005
6.019139847943734E+001	9.3321763E-003	-3.2330112E+001	0	-5.1683910E-005
6.019179847942723E+001	9.2939930E-003	-3.2249901E+001	0	-3.2594202E-005
6.019219847941713E+001	9.3130842E-003	-3.2163319E+001	0	-5.1683910E-005
6.019259847940702E+001	9.4276359E-003	-3.2086296E+001	0	2.4674917E-005
6.019299847939692E+001	9.2939930E-003	-3.2013084E+001	0	2.4674917E-005
6.019319847939187E+001	9.3321763E-003	-3.1960882E+001	0	-1.4713245E-004
6.019359847938176E+001	9.2558088E-003	-3.1892767E+001	0	5.5852106E-006
6.019399847937166E+001	9.2176255E-003	-3.1810644E+001	0	-1.0895303E-004
6.019439847936155E+001	9.3321763E-003	-3.1740622E+001	0	5.5852106E-006
6.019479847935145E+001	9.2939930E-003	-3.1657862E+001	0	5.5852106E-006
6.019519847934134E+001	9.2367167E-003	-3.1586561E+001	0	6.2854328E-005
6.019559847933124E+001	9.2367167E-003	-3.1509535E+001	0	1.0103374E-004
6.019599847932113E+001	9.3321763E-003	-3.1429323E+001	0	8.1944032E-005
6.019639847931103E+001	9.3512684E-003	-3.1362480E+001	0	4.3764623E-005
6.019679847930092E+001	9.3703605E-003	-3.1289907E+001	0	-1.3504496E-005
6.019719847929082E+001	9.3130842E-003	-3.1211605E+001	0	-1.3504496E-005
6.019759847928071E+001	9.3894526E-003	-3.1142853E+001	0	-3.2594202E-005
6.019799847927061E+001	9.3894526E-003	-3.1071554E+001	0	-7.0773618E-005
6.019839847926050E+001	9.2558088E-003	-3.1002800E+001	0	-3.2594202E-005
6.019879847925040E+001	9.3512684E-003	-3.0937868E+001	0	-7.0773618E-005
6.019919847924029E+001	9.2939930E-003	-3.0860203E+001	0	-7.0773618E-005
6.019959847923019E+001	9.3703605E-003	-3.0791449E+001	0	-3.2594202E-005
6.019999847922008E+001	9.3130842E-003	-3.0724606E+001	0	-5.1683910E-005
6.020039847920998E+001	9.3703605E-003	-3.0647579E+001	0	2.4674917E-005
6.020079847919988E+001	9.2939930E-003	-3.0582644E+001	0	-1.3504496E-005
6.020119847918977E+001	9.3703605E-003	-3.0508163E+001	0	-7.0773618E-005
6.020159847917967E+001	9.3894526E-003	-3.0450232E+001	0	-7.0773618E-005
6.020199847916956E+001	9.3512684E-003	-3.0377020E+001	0	8.1944032E-005
6.020239847915946E+001	9.3512684E-003	-3.0306997E+001	0	-5.1683910E-005
6.020279847914935E+001	9.3321763E-003	-3.0240789E+001	0	1.3921315E-004
6.020319847913925E+001	9.1985334E-003	-3.0175219E+001	0	-7.0773618E-005
6.020359847912914E+001	9.2939930E-003	-3.0116014E+001	0	4.3764623E-005
6.020399847911904E+001	9.3512684E-003	-3.0049809E+001	0	4.3764623E-005
6.020439847910893E+001	9.3894526E-003	-2.9982965E+001	0	2.4674917E-005
6.020479847909883E+001	9.3321763E-003	-2.9921852E+001	0	-8.9863323E-005
6.020519847908872E+001	9.3321763E-003	-2.9848642E+001	0	-3.2594202E-005
6.020559847907862E+001	9.2939930E-003	-2.9790077E+001	0	-5.1683910E-005
6.020599847906851E+001	9.3512684E-003	-2.9725779E+001	0	-1.3504496E-005
6.020639847905841E+001	9.2558088E-003	-2.9669123E+001	0	-1.6622215E-004
6.020679847904830E+001	9.3512684E-003	-2.9606098E+001	0	2.4674917E-005
6.020719847903820E+001	9.3703605E-003	-2.9539894E+001	0	-7.0773618E-005
6.020759847902809E+001	9.3512684E-003	-2.9471140E+001	0	-1.3504496E-005
6.020799847901799E+001	9.3321763E-003	-2.9414480E+001	0	5.5852106E-006
6.020839847900788E+001	9.3894526E-003	-2.9361008E+001	0	6.2854328E-005
6.020879847899778E+001	9.3703605E-003	-2.9299257E+001	0	-3.2594202E-005
6.020919847898767E+001	9.3321763E-003	-2.9231142E+001	0	-7.0773618E-005
6.020959847897757E+001	9.4085438E-003	-2.9179575E+001	0	5.5852106E-006
6.020999847896746E+001	9.2939930E-003	-2.9121645E+001	0	-7.0773618E-005
6.021039847895736E+001	9.2558088E-003	-2.9051619E+001	0	5.5852106E-006
6.021079847894725E+001	9.2749009E-003	-2.8990505E+001	0	2.4674917E-005
6.021139847893210E+001	9.3321763E-003	-2.8902655E+001	0	-5.1683910E-005
6.021179847892199E+001	9.3894526E-003	-2.8845999E+001	0	-7.0773618E-005
6.021219847891189E+001	9.3321763E-003	-2.8791885E+001	0	-8.9863323E-005
6.021259847890178E+001	9.2939930E-003	-2.8735229E+001	0	2.4674917E-005
6.021299847889168E+001	9.2939930E-003	-2.8679844E+001	0	-1.0895303E-004
6.021339847888157E+001	9.3321763E-003	-2.8626368E+001	0	5.5852106E-006
6.021379847887147E+001	9.3512684E-003	-2.8567804E+001	0	-1.4713245E-004
6.021419847886136E+001	9.3894526E-003	-2.8509872E+001	0	8.1944032E-005
6.021459847885126E+001	9.3512684E-003	-2.8450033E+001	0	-1.3504496E-005
6.021519847883610E+001	9.3130842E-003	-2.8370457E+001	0	2.4674917E-005
6.021559847882600E+001	9.3130842E-003	-2.8316347E+001	0	1.2012345E-004
6.021599847881589E+001	9.3703605E-003	-2.8257776E+001	0	2.4674917E-005
6.021639847880579E+001	9.2939930E-003	-2.8202394E+001	0	8.1944032E-005
6.021699847879063E+001	9.2749009E-003	-2.8124729E+001	0	-1.2804274E-004
6.021739847878052E+001	9.3130842E-003	-2.8068708E+001	0	-3.2594202E-005
6.021779847877042E+001	9.3130842E-003	-2.8013960E+001	0	-1.0895303E-004
6.021819847876031E+001	9.3512684E-003	-2.7957939E+001	0	-1.3504496E-005
6.021879847874516E+001	9.3703605E-003	-2.7881546E+001	0	6.2854328E-005
6.021939847873000E+001	9.2367167E-003	-2.7808973E+001	0	-5.1683910E-005
6.021979847871989E+001	9.4849113E-003	-2.7754864E+001	0	-1.2804274E-004
6.022019847870979E+001	9.3894526E-003	-2.7700115E+001	0	-7.0773618E-005
6.022059847869969E+001	9.3512684E-003	-2.7644730E+001	0	5.5852106E-006
6.022119847868453E+001	9.2939930E-003	-2.7570887E+001	0	2.4674917E-005
6.022159847867442E+001	9.2367167E-003	-2.7519323E+001	0	-1.0895303E-004
6.022199847866432E+001	9.2558088E-003	-2.7467756E+001	0	-7.0773618E-005
6.022259847864916E+001	9.2558088E-003	-2.7395184E+001	0	-5.1683910E-005
6.022299847863906E+001	9.2749009E-003	-2.7341074E+001	0	-1.3504496E-005
6.022359847862390E+001	9.3130842E-003	-2.7271685E+001	0	-7.0773618E-005
6.022399847861379E+001	9.2939930E-003	-2.7216299E+001	0	-8.9863323E-005
6.022439847860369E+001	9.3321763E-003	-2.7159004E+001	0	-8.9863323E-005
6.022499847858853E+001	9.3512684E-003	-2.7094707E+001	0	-8.9863323E-005
6.022559847857337E+001	9.3703605E-003	-2.7029776E+001	0	6.2854328E-005
6.022599847856327E+001	9.3321763E-003	-2.6971844E+001	0	-3.2594202E-005
6.022659847854811E+001	9.4085438E-003	-2.6901182E+001	0	-3.2594202E-005
6.022719847853296E+001	9.3130842E-003	-2.6831793E+001	0	5.5852106E-006
6.022759847852285E+001	9.3894526E-003	-2.6777679E+001	0	-1.6622215E-004
6.022819847850769E+001	9.3130842E-003	-2.6711475E+001	0	2.4674917E-005
6.022879847849254E+001	9.2558088E-003	-2.6633175E+001	0	8.1944032E-005
6.022939847847738E+001	9.3130842E-003	-2.6567602E+001	0	-8.9863323E-005
6.022999847846222E+001	9.3703605E-003	-2.6499487E+001	0	8.1944032E-005
6.023059847844706E+001	9.3321763E-003	-2.6425640E+001	0	6.2854328E-005
6.023119847843191E+001	9.4085438E-003	-2.6355614E+001	0	1.0103374E-004
6.023179847841675E+001	9.3130842E-003	-2.6293228E+001	0	-1.2804274E-004
6.023239847840159E+001	9.3321763E-003	-2.6230841E+001	0	-1.3504496E-005
6.023279847839149E+001	9.3130842E-003	-2.6180552E+001	0	6.2854328E-005
6.023339847837633E+001	9.2749009E-003	-2.6119438E+001	0	1.5830285E-004
6.023379847836623E+001	9.3321763E-003	-2.6063414E+001	0	-1.3504496E-005
6.023439847835107E+001	9.3130842E-003	-2.6006121E+001	0	-5.1683910E-005
6.023499847833591E+001	9.2939930E-003	-2.5934185E+001	0	-8.9863323E-005
6.023559847832075E+001	9.2749009E-003	-2.5875618E+001	0	-7.0773618E-005
6.023619847830560E+001	9.3894526E-003	-2.5810047E+001	0	-3.2594202E-005
6.023679847829044E+001	9.4085438E-003	-2.5748297E+001	0	8.1944032E-005
6.023719847828033E+001	9.2939930E-003	-2.5698006E+001	0	-1.3504496E-005
6.023779847826518E+001	9.3703605E-003	-2.5638803E+001	0	2.4674917E-005
6.023819847825507E+001	9.3130842E-003	-2.5587875E+001	0	5.5852106E-006
6.023879847823991E+001	9.2558088E-003	-2.5531855E+001	0	5.5852106E-006
6.023939847822476E+001	9.3894526E-003	-2.5466284E+001	0	2.4674917E-005
6.023999847820960E+001	9.3512684E-003	-2.5405172E+001	0	-5.1683910E-005
6.024059847819444E+001	9.2176255E-003	-2.5337055E+001	0	-3.2594202E-005
6.024119847817929E+001	9.2749009E-003	-2.5280397E+001	0	4.3764623E-005
6.024179847816413E+001	9.3321763E-003	-2.5215462E+001	0	4.3764623E-005
6.024239847814897E+001	9.3321763E-003	-2.5159443E+001	0	-1.3504496E-005
6.024299847813381E+001	9.2939930E-003	-2.5097055E+001	0	-3.2594202E-005
6.024359847811866E+001	9.3512684E-003	-2.5030849E+001	0	-1.8531186E-004
6.024419847810350E+001	9.3321763E-003	-2.4973557E+001	0	-7.0773618E-005
6.024479847808834E+001	9.3512684E-003	-2.4908625E+001	0	-8.9863323E-005
6.024559847806813E+001	9.2939930E-003	-2.4841780E+001	0	2.4674917E-005
6.024619847805297E+001	9.4276359E-003	-2.4778757E+001	0	-1.0895303E-004
6.024679847803782E+001	9.2939930E-003	-2.4725283E+001	0	-1.0895303E-004
6.024739847802266E+001	9.3512684E-003	-2.4668625E+001	0	2.4674917E-005
6.024799847800750E+001	9.2176255E-003	-2.4611965E+001	0	-3.2594202E-005
6.024859847799235E+001	9.3703605E-003	-2.4545761E+001	0	-3.2594202E-005
6.024919847797719E+001	9.3321763E-003	-2.4489738E+001	0	-1.3504496E-005
6.024979847796203E+001	9.4276359E-003	-2.4436264E+001	0	-7.0773618E-005
6.025039847794687E+001	9.3321763E-003	-2.4372604E+001	0	-7.0773618E-005
6.025099847793172E+001	9.3321763E-003	-2.4316586E+001	0	-3.2594202E-005
6.025159847791656E+001	9.3512684E-003	-2.4262472E+001	0	-7.0773618E-005
6.025239847789635E+001	9.4085438E-003	-2.4193083E+001	0	-3.2594202E-005
6.025299847788119E+001	9.1603491E-003	-2.4140882E+001	0	5.5852106E-006
6.025359847786604E+001	9.3703605E-003	-2.4079132E+001	0	1.2012345E-004
6.025419847785088E+001	9.3512684E-003	-2.4019293E+001	0	-1.3504496E-005
6.025499847783067E+001	9.3894526E-003	-2.3957542E+001	0	-3.2594202E-005
6.025559847781551E+001	9.3703605E-003	-2.3905338E+001	0	6.2854328E-005
6.025619847780035E+001	9.3130842E-003	-2.3850592E+001	0	-8.9863323E-005
6.025679847778520E+001	9.3512684E-003	-2.3795845E+001	0	-5.1683910E-005
6.025739847777004E+001	9.4085438E-003	-2.3744915E+001	0	-1.3504496E-005
6.025799847775488E+001	9.3894526E-003	-2.3685713E+001	0	-5.1683910E-005
6.025879847773467E+001	9.2558088E-003	-2.3623327E+001	0	-1.2804274E-004
6.025959847771446E+001	9.4276359E-003	-2.3552027E+001	0	-1.3504496E-005
6.026019847769930E+001	9.3321763E-003	-2.3501099E+001	0	5.5852106E-006
6.026079847768415E+001	9.3512684E-003	-2.3448896E+001	0	-8.9863323E-005
6.026159847766394E+001	9.3512684E-003	-2.3384602E+001	0	-7.0773618E-005
6.026219847764878E+001	9.3130842E-003	-2.3333673E+001	0	8.1944032E-005
6.026279847763362E+001	9.2749009E-003	-2.3277653E+001	0	1.0103374E-004
6.026339847761847E+001	9.3703605E-003	-2.3222904E+001	0	-7.0773618E-005
6.026419847759826E+001	9.4085438E-003	-2.3163700E+001	0	-1.4713245E-004
6.026479847758310E+001	9.3321763E-003	-2.3108316E+001	0	4.3764623E-005
6.026559847756289E+001	9.3703605E-003	-2.3044020E+001	0	-5.1683910E-005
6.026619847754773E+001	9.3321763E-003	-2.2992453E+001	0	-7.0773618E-005
6.026699847752752E+001	9.4467280E-003	-2.2937071E+001	0	-3.2594202E-005
6.026759847751237E+001	9.2749009E-003	-2.2886780E+001	0	-7.0773618E-005
6.026839847749216E+001	9.2749009E-003	-2.2819300E+001	0	-1.3504496E-005
6.026919847747195E+001	9.3894526E-003	-2.2759459E+001	0	8.1944032E-005
6.026979847745679E+001	9.2939930E-003	-2.2705347E+001	0	-1.0895303E-004
6.027059847743658E+001	9.3321763E-003	-2.2642324E+001	0	-5.1683910E-005
6.027139847741637E+001	9.2749009E-003	-2.2582485E+001	0	-3.2594202E-005
6.027219847739616E+001	9.3512684E-003	-2.2522007E+001	0	-7.0773618E-005
6.027299847737595E+001	9.3512684E-003	-2.2459620E+001	0	-7.0773618E-005
6.027379847735574E+001	9.3130842E-003	-2.2394049E+001	0	2.4674917E-005
6.027459847733553E+001	9.2749009E-003	-2.2335484E+001	0	-1.4713245E-004
6.027539847731532E+001	9.3321763E-003	-2.2282646E+001	0	-5.1683910E-005
6.027619847729511E+001	9.3130842E-003	-2.2222805E+001	0	6.2854328E-005
6.027699847727490E+001	9.3321763E-003	-2.2157871E+001	0	-7.0773618E-005
6.027779847725469E+001	9.3321763E-003	-2.2096756E+001	0	4.3764623E-005
6.027859847723448E+001	9.3321763E-003	-2.2031824E+001	0	-7.0773618E-005
6.027939847721427E+001	9.3321763E-003	-2.1976440E+001	0	-1.4713245E-004
6.028019847719406E+001	9.3130842E-003	-2.1919146E+001	0	5.5852106E-006
6.028099847717385E+001	9.3130842E-003	-2.1861851E+001	0	-3.2594202E-005
6.028179847715364E+001	9.3512684E-003	-2.1805195E+001	0	-8.9863323E-005
6.028259847713343E+001	9.2749009E-003	-2.1750446E+001	0	-7.0773618E-005
6.028339847711322E+001	9.3703605E-003	-2.1694427E+001	0	-1.3504496E-005
6.028419847709301E+001	9.3512684E-003	-2.1636496E+001	0	-5.1683910E-005
6.028499847707280E+001	9.3321763E-003	-2.1570925E+001	0	5.5852106E-006
6.028599847704754E+001	9.3321763E-003	-2.1507902E+001	0	8.1944032E-005
6.028679847702733E+001	9.3321763E-003	-2.1444242E+001	0	-3.2594202E-005
6.028779847700207E+001	9.3130842E-003	-2.1385674E+001	0	2.4674917E-005
6.028859847698186E+001	9.3512684E-003	-2.1316921E+001	0	-3.2594202E-005
6.028959847695660E+001	9.3321763E-003	-2.1264721E+001	0	-5.1683910E-005
6.029039847693639E+001	9.3703605E-003	-2.1210608E+001	0	-8.9863323E-005
6.029119847691618E+001	9.3321763E-003	-2.1146313E+001	0	2.4674917E-005
6.029219847689092E+001	9.3512684E-003	-2.1086472E+001	0	-3.2594202E-005
6.029299847687071E+001	9.3321763E-003	-2.1032362E+001	0	-7.0773618E-005
6.029379847685050E+001	9.3321763E-003	-2.0976341E+001	0	6.2854328E-005
6.029459847683029E+001	9.3512684E-003	-2.0919683E+001	0	8.1944032E-005
6.029579847679997E+001	9.3512684E-003	-2.0854113E+001	0	-3.2594202E-005
6.029659847677976E+001	9.2367167E-003	-2.0797455E+001	0	2.4674917E-005
6.029759847675450E+001	9.3130842E-003	-2.0731249E+001	0	5.5852106E-006
6.029859847672924E+001	9.3130842E-003	-2.0663771E+001	0	-1.3504496E-005
6.029959847670398E+001	9.3894526E-003	-2.0613478E+001	0	-1.3504496E-005
6.030039847668377E+001	9.1794413E-003	-2.0560640E+001	0	-3.2594202E-005
6.030119847666356E+001	9.3894526E-003	-2.0505257E+001	0	2.4674917E-005
6.030219847663830E+001	9.3130842E-003	-2.0443504E+001	0	-8.9863323E-005
6.030319847661303E+001	9.2558088E-003	-2.0382391E+001	0	-3.2594202E-005
6.030419847658777E+001	9.2939930E-003	-2.0325735E+001	0	-3.2594202E-005
6.030499847656756E+001	9.3894526E-003	-2.0269712E+001	0	-3.2594202E-005
6.030619847653725E+001	9.2558088E-003	-2.0204779E+001	0	-5.1683910E-005
6.030699847651704E+001	9.2939930E-003	-2.0152578E+001	0	-7.0773618E-005
6.030799847649178E+001	9.3703605E-003	-2.0095921E+001	0	2.4674917E-005
6.030899847646651E+001	9.3703605E-003	-2.0034172E+001	0	1.0103374E-004
6.031019847643620E+001	9.3703605E-003	-1.9974331E+001	0	-3.2594202E-005
6.031119847641094E+001	9.3321763E-003	-1.9910669E+001	0	-5.1683910E-005
6.031219847638567E+001	9.3130842E-003	-1.9854013E+001	0	-1.8531186E-004
6.031319847636041E+001	9.3512684E-003	-1.9796082E+001	0	-1.8531186E-004
6.031419847633515E+001	9.2176255E-003	-1.9736242E+001	0	-1.0895303E-004
6.031519847630989E+001	9.3512684E-003	-1.9674492E+001	0	-1.3504496E-005
6.031619847628463E+001	9.3512684E-003	-1.9624201E+001	0	-7.0773618E-005
6.031719847625936E+001	9.3130842E-003	-1.9564995E+001	0	-5.1683910E-005
6.031819847623410E+001	9.3512684E-003	-1.9508339E+001	0	-8.9863323E-005
6.031939847620379E+001	9.3512684E-003	-1.9441496E+001	0	1.0103374E-004
6.032039847617853E+001	9.2939930E-003	-1.9386747E+001	0	-1.2804274E-004
6.032159847614821E+001	9.2558088E-003	-1.9323725E+001	0	-7.0773618E-005
6.032259847612295E+001	9.2939930E-003	-1.9266430E+001	0	4.3764623E-005
6.032379847609263E+001	9.3321763E-003	-1.9212955E+001	0	-3.2594202E-005
6.032459847607242E+001	9.3321763E-003	-1.9156937E+001	0	8.1944032E-005
6.032579847604211E+001	9.3321763E-003	-1.9104097E+001	0	-1.3504496E-005
6.032679847601685E+001	9.3321763E-003	-1.9053169E+001	0	-7.0773618E-005
6.032779847599159E+001	9.4085438E-003	-1.8995874E+001	0	6.2854328E-005
6.032899847596127E+001	9.3703605E-003	-1.8932215E+001	0	2.4674917E-005
6.033019847593096E+001	9.2939930E-003	-1.8871738E+001	0	-7.0773618E-005
6.033139847590064E+001	9.3321763E-003	-1.8813807E+001	0	2.4674917E-005
6.033219847588043E+001	9.3703605E-003	-1.8761606E+001	0	-3.2594202E-005
6.033339847585012E+001	9.3130842E-003	-1.8706223E+001	0	-1.0895303E-004
6.033459847581980E+001	9.2939930E-003	-1.8648291E+001	0	6.2854328E-005
6.033579847578949E+001	9.3130842E-003	-1.8592272E+001	0	8.1944032E-005
6.033699847575917E+001	9.3512684E-003	-1.8534340E+001	0	-1.3504496E-005
6.033819847572886E+001	9.3703605E-003	-1.8463676E+001	0	2.4674917E-005
6.033959847569349E+001	9.3321763E-003	-1.8402565E+001	0	-1.3504496E-005
6.034079847566318E+001	9.3703605E-003	-1.8338902E+001	0	-5.1683910E-005
6.034199847563286E+001	9.3321763E-003	-1.8282883E+001	0	2.4674917E-005
6.034339847559750E+001	9.3321763E-003	-1.8224314E+001	0	-3.2594202E-005
6.034439847557223E+001	9.4085438E-003	-1.8172113E+001	0	2.4674917E-005
6.034559847554192E+001	9.2176255E-003	-1.8114183E+001	0	-3.2594202E-005
6.034699847550655E+001	9.2367167E-003	-1.8046703E+001	0	5.5852106E-006
6.034819847547624E+001	9.3321763E-003	-1.7993866E+001	0	6.2854328E-005
6.034939847544592E+001	9.2558088E-003	-1.7943573E+001	0	-3.2594202E-005
6.035059847541561E+001	9.3321763E-003	-1.7889463E+001	0	-1.4713245E-004
6.035179847538529E+001	9.2176255E-003	-1.7838533E+001	0	5.5852106E-006
6.035299847535498E+001	9.3321763E-003	-1.7775511E+001	0	-3.2594202E-005
6.035419847532467E+001	9.3512684E-003	-1.7721401E+001	0	-3.2594202E-005
6.035559847528930E+001	9.4276359E-003	-1.7663469E+001	0	2.4674917E-005
6.035679847525898E+001	9.3703605E-003	-1.7612543E+001	0	-5.1683910E-005
6.035799847522867E+001	9.4085438E-003	-1.7559067E+001	0	-3.2594202E-005
6.035919847519835E+001	9.3703605E-003	-1.7505592E+001	0	-3.2594202E-005
6.036059847516299E+001	9.3321763E-003	-1.7452120E+001	0	-1.3504496E-005
6.036179847513267E+001	9.2558088E-003	-1.7391005E+001	0	-5.1683910E-005
6.036319847509731E+001	9.4085438E-003	-1.7336895E+001	0	2.4674917E-005
6.036439847506699E+001	9.2939930E-003	-1.7285965E+001	0	2.4674917E-005
6.036579847503162E+001	9.3512684E-003	-1.7224852E+001	0	5.5852106E-006
6.036719847499626E+001	9.2939930E-003	-1.7168833E+001	0	-3.2594202E-005
6.036859847496089E+001	9.4467280E-003	-1.7116631E+001	0	-5.1683910E-005
6.036959847493563E+001	9.3512684E-003	-1.7065065E+001	0	-3.2594202E-005
6.037099847490026E+001	9.4276359E-003	-1.7007771E+001	0	6.2854328E-005
6.037259847485984E+001	9.3703605E-003	-1.6954296E+001	0	8.1944032E-005
6.037379847482953E+001	9.3130842E-003	-1.6901461E+001	0	5.5852106E-006
6.037519847479416E+001	9.4467280E-003	-1.6840982E+001	0	-1.0895303E-004
6.037659847475879E+001	9.2939930E-003	-1.6785599E+001	0	-3.2594202E-005
6.037819847471837E+001	9.2749009E-003	-1.6725758E+001	0	5.5852106E-006
6.037959847468301E+001	9.2939930E-003	-1.6673555E+001	0	8.1944032E-005
6.038119847464259E+001	9.3130842E-003	-1.6618809E+001	0	-5.1683910E-005
6.038259847460722E+001	9.4085438E-003	-1.6564060E+001	0	-7.0773618E-005
6.038379847457691E+001	9.3703605E-003	-1.6513132E+001	0	5.5852106E-006
6.038559847453143E+001	9.3703605E-003	-1.6457111E+001	0	-3.2594202E-005
6.038699847449607E+001	9.2939930E-003	-1.6400454E+001	0	2.4674917E-005
6.038839847446070E+001	9.3894526E-003	-1.6343161E+001	0	-7.0773618E-005
6.038999847442028E+001	9.2749009E-003	-1.6288414E+001	0	1.2012345E-004
6.039139847438491E+001	9.3894526E-003	-1.6230482E+001	0	4.3764623E-005
6.039299847434449E+001	9.2939930E-003	-1.6177645E+001	0	-1.3504496E-005
6.039459847430408E+001	9.3703605E-003	-1.6116531E+001	0	-7.0773618E-005
6.039619847426366E+001	9.2749009E-003	-1.6066238E+001	0	-2.0440157E-004
6.039759847422829E+001	9.2749009E-003	-1.6015947E+001	0	2.4674917E-005
6.039899847419292E+001	9.3321763E-003	-1.5965017E+001	0	-5.1683910E-005
6.040059847415250E+001	9.2939930E-003	-1.5911545E+001	0	-8.9863323E-005
6.040199847411714E+001	9.3130842E-003	-1.5860617E+001	0	8.1944032E-005
6.040359847407672E+001	9.3894526E-003	-1.5810325E+001	0	-1.0895303E-004
6.040499847404135E+001	9.3321763E-003	-1.5757487E+001	0	8.1944032E-005
6.040679847399588E+001	9.2749009E-003	-1.5695737E+001	0	-1.3504496E-005
6.040859847395041E+001	9.3703605E-003	-1.5637170E+001	0	4.3764623E-005
6.041039847390493E+001	9.3130842E-003	-1.5579876E+001	0	-1.8531186E-004
6.041219847385946E+001	9.2558088E-003	-1.5520672E+001	0	1.0103374E-004
6.041379847381904E+001	9.3703605E-003	-1.5466560E+001	0	-5.1683910E-005
6.041539847377862E+001	9.3512684E-003	-1.5413724E+001	0	-8.9863323E-005
6.041719847373315E+001	9.4085438E-003	-1.5357066E+001	0	-1.0895303E-004
6.041899847368768E+001	9.2749009E-003	-1.5295316E+001	0	-1.3504496E-005
6.042079847364221E+001	9.3321763E-003	-1.5241840E+001	0	-3.2594202E-005
6.042279847359168E+001	9.4276359E-003	-1.5176270E+001	0	-5.1683910E-005
6.042479847354116E+001	9.4085438E-003	-1.5123434E+001	0	-1.3504496E-005
6.042639847350074E+001	9.2367167E-003	-1.5069323E+001	0	5.5852106E-006
6.042819847345527E+001	9.4467280E-003	-1.5018394E+001	0	-8.9863323E-005
6.042999847340980E+001	9.3321763E-003	-1.4965556E+001	0	-5.1683910E-005
6.043159847336938E+001	9.3512684E-003	-1.4911445E+001	0	-3.2594202E-005
6.043339847332390E+001	9.3130842E-003	-1.4859244E+001	0	4.3764623E-005
6.043519847327843E+001	9.2939930E-003	-1.4807679E+001	0	-1.2804274E-004
6.043699847323296E+001	9.3894526E-003	-1.4753569E+001	0	5.5852106E-006
6.043899847318244E+001	9.3894526E-003	-1.4700730E+001	0	-7.0773618E-005
6.044079847313697E+001	9.3703605E-003	-1.4645983E+001	0	-1.2804274E-004
6.044259847309149E+001	9.3894526E-003	-1.4595692E+001	0	2.4674917E-005
6.044439847304602E+001	9.3321763E-003	-1.4544127E+001	0	2.4674917E-005
6.044639847299550E+001	9.3321763E-003	-1.4485559E+001	0	5.5852106E-006
6.044839847294497E+001	9.2367167E-003	-1.4434632E+001	0	-5.1683910E-005
6.045019847289950E+001	9.2939930E-003	-1.4379248E+001	0	-3.2594202E-005
6.045219847284898E+001	9.4085438E-003	-1.4327045E+001	0	8.1944032E-005
6.045419847279845E+001	9.3894526E-003	-1.4276118E+001	0	-3.2594202E-005
6.045599847275298E+001	9.3130842E-003	-1.4223916E+001	0	-1.0895303E-004
6.045819847269740E+001	9.3894526E-003	-1.4169806E+001	0	4.3764623E-005
6.045999847265193E+001	9.3703605E-003	-1.4119515E+001	0	5.5852106E-006
6.046179847260646E+001	9.3130842E-003	-1.4066040E+001	0	-1.2804274E-004
6.046399847255088E+001	9.3321763E-003	-1.4015748E+001	0	-1.3504496E-005
6.046619847249531E+001	9.4467280E-003	-1.3952087E+001	0	-5.1683910E-005
6.046859847243468E+001	9.4658202E-003	-1.3895432E+001	0	-1.3504496E-005
6.047079847237910E+001	9.3703605E-003	-1.3842593E+001	0	4.3764623E-005
6.047279847232858E+001	9.3703605E-003	-1.3782115E+001	0	-1.3504496E-005
6.047519847226795E+001	9.2939930E-003	-1.3729278E+001	0	-3.2594202E-005
6.047719847221742E+001	9.2939930E-003	-1.3673894E+001	0	2.4674917E-005
6.047979847215174E+001	9.3321763E-003	-1.3618509E+001	0	1.0103374E-004
6.048219847209111E+001	9.3512684E-003	-1.3557396E+001	0	6.2854328E-005
6.048459847203048E+001	9.3703605E-003	-1.3500102E+001	0	-3.2594202E-005
6.048699847196986E+001	9.4276359E-003	-1.3444081E+001	0	-1.3504496E-005
6.048919847191428E+001	9.3130842E-003	-1.3393790E+001	0	2.4674917E-005
6.049139847185870E+001	9.3703605E-003	-1.3339679E+001	0	-1.3504496E-005
6.049379847179807E+001	9.3321763E-003	-1.3283022E+001	0	-1.3504496E-005
6.049619847173744E+001	9.2749009E-003	-1.3231456E+001	0	4.3764623E-005
6.049839847168187E+001	9.2939930E-003	-1.3178617E+001	0	-1.3504496E-005
6.050099847161619E+001	9.4276359E-003	-1.3127053E+001	0	4.3764623E-005
6.050339847155556E+001	9.2749009E-003	-1.3069123E+001	0	-8.9863323E-005
6.050599847148987E+001	9.4085438E-003	-1.3013739E+001	0	6.2854328E-005
6.050819847143430E+001	9.3703605E-003	-1.2963448E+001	0	-3.2594202E-005
6.051099847136356E+001	9.3703605E-003	-1.2909973E+001	0	2.4674917E-005
6.051319847130799E+001	9.4085438E-003	-1.2854589E+001	0	4.3764623E-005
6.051599847123725E+001	9.3512684E-003	-1.2794748E+001	0	-1.3504496E-005
6.051859847117157E+001	9.3512684E-003	-1.2741910E+001	0	-3.2594202E-005
6.052119847110589E+001	9.3321763E-003	-1.2690983E+001	0	5.5852106E-006
6.052359847104526E+001	9.2558088E-003	-1.2638781E+001	0	8.1944032E-005
6.052639847097453E+001	9.4085438E-003	-1.2587853E+001	0	-5.1683910E-005
6.052899847090885E+001	9.3703605E-003	-1.2532469E+001	0	-8.9863323E-005
6.053179847083811E+001	9.3512684E-003	-1.2480905E+001	0	-8.9863323E-005
6.053419847077748E+001	9.3894526E-003	-1.2426157E+001	0	-5.1683910E-005
6.053699847070675E+001	9.3321763E-003	-1.2372682E+001	0	2.4674917E-005
6.053999847063096E+001	9.3130842E-003	-1.2319844E+001	0	8.1944032E-005
6.054259847056528E+001	9.4276359E-003	-1.2259368E+001	0	5.5852106E-006
6.054559847048949E+001	9.4085438E-003	-1.2207166E+001	0	-5.1683910E-005
6.054859847041371E+001	9.2367167E-003	-1.2155602E+001	0	1.2012345E-004
6.055119847034803E+001	9.3512684E-003	-1.2099580E+001	0	-1.0895303E-004
6.055419847027224E+001	9.3894526E-003	-1.2042924E+001	0	-8.9863323E-005
6.055739847019140E+001	9.4276359E-003	-1.1990722E+001	0	6.2854328E-005
6.055959847013582E+001	9.2939930E-003	-1.1935337E+001	0	-5.1683910E-005
6.056339847003983E+001	9.3512684E-003	-1.1878043E+001	0	-3.2594202E-005
6.056639846996404E+001	9.3703605E-003	-1.1821386E+001	0	4.3764623E-005
6.056939846988826E+001	9.2939930E-003	-1.1768549E+001	0	8.1944032E-005
6.057239846981247E+001	9.3894526E-003	-1.1716984E+001	0	-5.1683910E-005
6.057559846973163E+001	9.4085438E-003	-1.1666056E+001	0	4.3764623E-005
6.057839846966090E+001	9.3130842E-003	-1.1609399E+001	0	1.3921315E-004
6.058159846958006E+001	9.4085438E-003	-1.1553377E+001	0	-3.2594202E-005
6.058539846948406E+001	9.3512684E-003	-1.1499903E+001	0	1.2012345E-004
6.058819846941333E+001	9.3703605E-003	-1.1446428E+001	0	2.4674917E-005
6.059139846933249E+001	9.4085438E-003	-1.1396137E+001	0	8.1944032E-005
6.059479846924660E+001	9.4085438E-003	-1.1343299E+001	0	-1.2804274E-004
6.059739846918092E+001	9.3512684E-003	-1.1292371E+001	0	2.4674917E-005
6.060119846908492E+001	9.3130842E-003	-1.1236350E+001	0	-3.2594202E-005
6.060439846900408E+001	9.2749009E-003	-1.1185423E+001	0	-1.0895303E-004
6.060779846891819E+001	9.3894526E-003	-1.1133221E+001	0	6.2854328E-005
6.061119846883230E+001	9.2749009E-003	-1.1077836E+001	0	5.5852106E-006
6.061459846874641E+001	9.3321763E-003	-1.1027546E+001	0	2.4674917E-005
6.061799846866052E+001	9.4085438E-003	-1.0974071E+001	0	-1.0895303E-004
6.062139846857463E+001	9.3512684E-003	-1.0923779E+001	0	4.3764623E-005
6.062479846848873E+001	9.3894526E-003	-1.0870305E+001	0	-5.1683910E-005
6.062839846839779E+001	9.3130842E-003	-1.0820013E+001	0	5.5852106E-006
6.063179846831190E+001	9.4085438E-003	-1.0768449E+001	0	4.3764623E-005
6.063579846821085E+001	9.3321763E-003	-1.0713064E+001	0	-3.2594202E-005
6.063899846813001E+001	9.2749009E-003	-1.0660864E+001	0	5.5852106E-006
6.064279846803402E+001	9.2939930E-003	-1.0608662E+001	0	-1.2804274E-004
6.064659846793802E+001	9.3321763E-003	-1.0555187E+001	0	1.3921315E-004
6.065059846783697E+001	9.2939930E-003	-1.0499166E+001	0	-1.3504496E-005
6.065459846773592E+001	9.3512684E-003	-1.0443147E+001	0	-5.1683910E-005
6.065819846764498E+001	9.3130842E-003	-1.0392854E+001	0	4.3764623E-005
6.066239846753888E+001	9.3703605E-003	-1.0333651E+001	0	-7.0773618E-005
6.066699846742267E+001	9.3321763E-003	-1.0278266E+001	0	1.2012345E-004
6.067099846732162E+001	9.2749009E-003	-1.0224154E+001	0	-5.1683910E-005
6.067499846722058E+001	9.2558088E-003	-1.0173227E+001	0	4.3764623E-005
6.067899846711953E+001	9.3894526E-003	-1.0122935E+001	0	-3.2594202E-005
6.068299846701848E+001	9.3321763E-003	-1.0072007E+001	0	6.2854328E-005
6.068699846691743E+001	9.3130842E-003	-1.0019169E+001	0	-1.3504496E-005
6.069139846680628E+001	9.3703605E-003	-9.9669685E+000	0	2.4674917E-005
6.069539846670523E+001	9.3703605E-003	-9.9115839E+000	0	6.2854328E-005
6.070019846658397E+001	9.3512684E-003	-9.8511066E+000	0	-8.9863323E-005
6.070479846646776E+001	9.2939930E-003	-9.7976322E+000	0	4.3764623E-005
6.070899846636166E+001	9.2939930E-003	-9.7467041E+000	0	-8.9863323E-005
6.071339846625051E+001	9.3703605E-003	-9.6951399E+000	0	2.4674917E-005
6.071819846612925E+001	9.3512684E-003	-9.6403923E+000	0	2.4674917E-005
6.072259846601810E+001	9.3130842E-003	-9.5894632E+000	0	1.2012345E-004
6.072739846589684E+001	9.2939930E-003	-9.5391731E+000	0	1.0103374E-004
6.073179846578569E+001	9.3894526E-003	-9.4888811E+000	0	1.2012345E-004
6.073599846567959E+001	9.3703605E-003	-9.4341335E+000	0	2.4674917E-005
6.074079846555833E+001	9.3512684E-003	-9.3838425E+000	0	6.2854328E-005
6.074579846543202E+001	9.3321763E-003	-9.3322773E+000	0	-1.3504496E-005
6.075079846530571E+001	9.3321763E-003	-9.2800760E+000	0	6.2854328E-005
6.075579846517940E+001	9.3512684E-003	-9.2266016E+000	0	6.2854328E-005
6.076039846506319E+001	9.2939930E-003	-9.1763105E+000	0	-7.0773618E-005
6.076579846492677E+001	9.3130842E-003	-9.1183796E+000	0	-1.2804274E-004
6.077139846478531E+001	9.3130842E-003	-9.0649052E+000	0	-1.3504496E-005
6.077639846465900E+001	9.2939930E-003	-9.0139771E+000	0	-3.2594202E-005
6.078159846452763E+001	9.3512684E-003	-8.9636860E+000	0	4.3764623E-005
6.078639846440637E+001	9.3321763E-003	-8.9089384E+000	0	-3.2594202E-005
6.079219846425985E+001	9.3512684E-003	-8.8586464E+000	0	-1.3504496E-005
6.079719846413354E+001	9.3321763E-003	-8.8045359E+000	0	1.2012345E-004
6.080359846397187E+001	9.4467280E-003	-8.7536068E+000	0	-1.3504496E-005
6.080879846384050E+001	9.3894526E-003	-8.6963129E+000	0	4.3764623E-005
6.081559846366872E+001	9.3512684E-003	-8.6422014E+000	0	-1.3504496E-005
6.082079846353736E+001	9.2558088E-003	-8.5900011E+000	0	-1.3504496E-005
6.082719846337568E+001	9.3130842E-003	-8.5333433E+000	0	-1.3504496E-005
6.083359846321400E+001	9.3321763E-003	-8.4830523E+000	0	-3.2594202E-005
6.083959846306243E+001	9.4085438E-003	-8.4327602E+000	0	-1.3504496E-005
6.084559846291086E+001	9.3130842E-003	-8.3818331E+000	0	1.7739256E-004
6.085179846275423E+001	9.3703605E-003	-8.3283577E+000	0	-1.3504496E-005
6.085779846260266E+001	9.3703605E-003	-8.2767935E+000	0	-1.0895303E-004
6.086339846246119E+001	9.3894526E-003	-8.2258654E+000	0	-7.0773618E-005
6.087059846227930E+001	9.3130842E-003	-8.1736650E+000	0	-1.3504496E-005
6.087719846211257E+001	9.2939930E-003	-8.1157341E+000	0	6.2854328E-005
6.088439846193069E+001	9.2939930E-003	-8.0648050E+000	0	5.5852106E-006
6.089119846175890E+001	9.1794413E-003	-8.0094213E+000	0	-5.1683910E-005
6.089819846158207E+001	9.3130842E-003	-7.9565830E+000	0	5.5852106E-006
6.090559846139513E+001	9.3894526E-003	-7.9062920E+000	0	2.4674917E-005
6.091139846124861E+001	9.4085438E-003	-7.8534536E+000	0	4.3764623E-005
6.091899846105662E+001	9.3894526E-003	-7.7993431E+000	0	-1.2804274E-004
6.092719846084947E+001	9.3894526E-003	-7.7452321E+000	0	-7.0773618E-005
6.093439846066758E+001	9.3130842E-003	-7.6943040E+000	0	2.4674917E-005
6.094199846047559E+001	9.4085438E-003	-7.6421027E+000	0	-1.3504496E-005
6.094979846027854E+001	9.3321763E-003	-7.5892653E+000	0	-5.1683910E-005
6.095719846009160E+001	9.3321763E-003	-7.5389733E+000	0	-5.1683910E-005
6.096479845989961E+001	9.3703605E-003	-7.4854994E+000	0	-8.9863323E-005
6.097279845969751E+001	9.3703605E-003	-7.4332972E+000	0	2.4674917E-005
6.098119845948531E+001	9.1985334E-003	-7.3823700E+000	0	-3.2594202E-005
6.098919845928322E+001	9.3130842E-003	-7.3314419E+000	0	-3.2594202E-005
6.099839845905080E+001	9.3894526E-003	-7.2754207E+000	0	-3.2594202E-005
6.100719845882850E+001	9.3894526E-003	-7.2238560E+000	0	-7.0773618E-005
6.101579845861124E+001	9.2939930E-003	-7.1729279E+000	0	-7.0773618E-005
6.102479845838388E+001	9.3321763E-003	-7.1175432E+000	0	5.5852106E-006
6.103379845815653E+001	9.4658202E-003	-7.0640693E+000	0	2.4674917E-005
6.104359845790896E+001	9.3130842E-003	-7.0105948E+000	0	-1.0895303E-004
6.105319845766644E+001	9.3512684E-003	-6.9583941E+000	0	6.2854328E-005
6.106279845742392E+001	9.3512684E-003	-6.9042826E+000	0	6.2854328E-005
6.107279845717130E+001	9.3130842E-003	-6.8527179E+000	0	6.2854328E-005
6.108299845691363E+001	9.3130842E-003	-6.8005166E+000	0	8.1944032E-005
6.109339845665090E+001	9.3321763E-003	-6.7502255E+000	0	-1.3504496E-005
6.110279845641344E+001	9.3894526E-003	-6.6992974E+000	0	-3.2594202E-005
6.111379845613556E+001	9.3512684E-003	-6.6445494E+000	0	2.4674917E-005
6.112359845588799E+001	9.2939930E-003	-6.5917115E+000	0	-3.2594202E-005
6.113459845561010E+001	9.3130842E-003	-6.5395107E+000	0	-7.0773618E-005
6.114579845532717E+001	9.2939930E-003	-6.4873095E+000	0	6.2854328E-005
6.115779845502402E+001	9.4276359E-003	-6.4344711E+000	0	-7.0773618E-005
6.116659845480172E+001	9.4467280E-003	-6.3841801E+000	0	-1.3504496E-005
6.118059845444805E+001	9.3894526E-003	-6.3319788E+000	0	2.4674917E-005
6.119299845413479E+001	9.3894526E-003	-6.2753215E+000	0	4.3764623E-005
6.120499845383165E+001	9.4276359E-003	-6.2218466E+000	0	-5.1683910E-005
6.121759845351335E+001	9.3321763E-003	-6.1664629E+000	0	-7.0773618E-005
6.123279845312936E+001	9.3321763E-003	-6.1123514E+000	0	5.5852106E-006
6.124519845281611E+001	9.2939930E-003	-6.0607867E+000	0	4.3764623E-005
6.125759845250286E+001	9.3130842E-003	-6.0092220E+000	0	-1.3504496E-005
6.127219845213403E+001	9.3321763E-003	-5.9563847E+000	0	-1.3504496E-005
6.128379845184099E+001	9.3894526E-003	-5.9054565E+000	0	8.1944032E-005
6.129919845145196E+001	9.3894526E-003	-5.8545284E+000	0	4.3764623E-005
6.131379845108313E+001	9.3703605E-003	-5.8036003E+000	0	-5.1683910E-005
6.132759845073451E+001	9.3703605E-003	-5.7513990E+000	0	-1.3504496E-005
6.134059845040611E+001	9.3321763E-003	-5.7004709E+000	0	-1.2804274E-004
6.135659845000191E+001	9.4276359E-003	-5.6469965E+000	0	-7.0773618E-005
6.137299844958761E+001	9.3512684E-003	-5.5967050E+000	0	-1.0895303E-004
6.138839844919858E+001	9.3130842E-003	-5.5451403E+000	0	-7.0773618E-005
6.140359844881459E+001	9.2939930E-003	-5.4948487E+000	0	-1.3504496E-005
6.141979844840535E+001	9.2939930E-003	-5.4413743E+000	0	5.5852106E-006
6.143599844799610E+001	9.3321763E-003	-5.3898096E+000	0	6.2854328E-005
6.145499844751612E+001	9.4276359E-003	-5.3395185E+000	0	-1.3504496E-005
6.147079844711698E+001	9.4085438E-003	-5.2879539E+000	0	6.2854328E-005
6.148859844666731E+001	9.3130842E-003	-5.2363892E+000	0	-1.2804274E-004
6.150699844620249E+001	9.4085438E-003	-5.1854610E+000	0	4.3764623E-005
6.152559844573261E+001	9.3321763E-003	-5.1338964E+000	0	-1.6622215E-004
6.154199844531831E+001	9.3130842E-003	-5.0810580E+000	0	4.3764623E-005
6.156319844478276E+001	9.3894526E-003	-5.0250373E+000	0	-3.2594202E-005
6.158439844424720E+001	9.2939930E-003	-4.9721994E+000	0	-1.3504496E-005
6.160459844373690E+001	9.3512684E-003	-4.9193616E+000	0	-5.1683910E-005
6.162719844316598E+001	9.3703605E-003	-4.8684335E+000	0	8.1944032E-005
6.164519844271126E+001	9.3130842E-003	-4.8162327E+000	0	-5.1683910E-005
6.166959844209487E+001	9.3703605E-003	-4.7627583E+000	0	-3.2594202E-005
6.169219844152394E+001	9.3321763E-003	-4.7092834E+000	0	-1.3504496E-005
6.171419844096818E+001	9.4276359E-003	-4.6583552E+000	0	-5.1683910E-005
6.173799844036694E+001	9.3703605E-003	-4.6061540E+000	0	-1.3504496E-005
6.176059843979601E+001	9.2749009E-003	-4.5482235E+000	0	5.5852106E-006
6.178519843917456E+001	9.3703605E-003	-4.4972954E+000	0	-5.1683910E-005
6.181359843845712E+001	9.1985334E-003	-4.4412746E+000	0	-1.0895303E-004
6.183959843780031E+001	9.2749009E-003	-4.3897099E+000	0	-8.9863323E-005
6.186639843712328E+001	9.3130842E-003	-4.3394184E+000	0	2.4674917E-005
6.190739843608753E+001	9.3130842E-003	-4.2891417E+000	0	5.5852106E-006
6.193359843542567E+001	9.3512684E-003	-4.2389207E+000	0	6.2854328E-005
6.196039843474864E+001	9.4085438E-003	-4.1887627E+000	0	5.5852106E-006
6.198819843404635E+001	9.4658202E-003	-4.1387329E+000	0	-3.2594202E-005
6.201659843332891E+001	9.3894526E-003	-4.0884476E+000	0	-7.0773618E-005
6.204559843259631E+001	9.3894526E-003	-4.0383534E+000	0	2.4674917E-005
6.207539843184350E+001	9.3512684E-003	-3.9873052E+000	0	-1.0895303E-004
6.210599843107047E+001	9.2749009E-003	-3.9367654E+000	0	-7.0773618E-005
6.213759843027219E+001	9.3512684E-003	-3.8862898E+000	0	5.5852106E-006
6.216919842947391E+001	9.4276359E-003	-3.8361320E+000	0	-1.3504496E-005
6.220159842865542E+001	9.3321763E-003	-3.7861018E+000	0	8.1944032E-005
6.223499842781166E+001	9.4085438E-003	-3.7355628E+000	0	-3.2594202E-005
6.226879842695780E+001	9.3130842E-003	-3.6853411E+000	0	-1.8531186E-004
6.230399842606857E+001	9.4276359E-003	-3.6352475E+000	0	-1.0895303E-004
6.233999842515914E+001	9.3321763E-003	-3.5847716E+000	0	2.4674917E-005
6.237699842422444E+001	9.3894526E-003	-3.5346141E+000	0	-1.3504496E-005
6.241479842326953E+001	9.2558088E-003	-3.4840109E+000	0	-1.0895303E-004
6.245319842229947E+001	9.3321763E-003	-3.4339170E+000	0	4.3764623E-005
6.249239842130919E+001	9.3894526E-003	-3.3838232E+000	0	-8.9863323E-005
6.253419842025323E+001	9.3703605E-003	-3.3333473E+000	0	5.5852106E-006
6.257599841919728E+001	9.3130842E-003	-3.2832537E+000	0	-1.3504496E-005
6.261899841811100E+001	9.3130842E-003	-3.2330325E+000	0	-8.9863323E-005
6.266359841698431E+001	9.3894526E-003	-3.1820474E+000	0	-5.1683910E-005
6.271019841580710E+001	9.3321763E-003	-3.1317623E+000	0	-1.0895303E-004
6.275739841461473E+001	9.2749009E-003	-3.0816050E+000	0	-5.1683910E-005
6.280519841340720E+001	9.3894526E-003	-3.0315747E+000	0	5.5852106E-006
6.285539841213904E+001	9.4276359E-003	-2.9810989E+000	0	-8.9863323E-005
6.290719841083046E+001	9.2939930E-003	-2.9310050E+000	0	-3.2594202E-005
6.296019840949157E+001	9.3321763E-003	-2.8806567E+000	0	-3.2594202E-005
6.301419840812741E+001	9.3321763E-003	-2.8305628E+000	0	5.5852106E-006
6.307159840667737E+001	9.3894526E-003	-2.7797048E+000	0	-7.0773618E-005
6.313039840519195E+001	9.4849113E-003	-2.7291653E+000	0	-3.2594202E-005
6.319079840366612E+001	9.3703605E-003	-2.6788807E+000	0	-8.9863323E-005
6.325399840206956E+001	9.3894526E-003	-2.6287868E+000	0	-2.0440157E-004
6.331839840044267E+001	9.3130842E-003	-2.5787566E+000	0	-7.0773618E-005
6.338559839874506E+001	9.3703605E-003	-2.5286627E+000	0	5.5852106E-006
6.345419839701208E+001	9.3512684E-003	-2.4778686E+000	0	-1.2804274E-004
6.352879839512752E+001	9.3703605E-003	-2.4277112E+000	0	-3.2594202E-005
6.360299839325307E+001	9.2558088E-003	-2.3769808E+000	0	5.5852106E-006
6.368199839125737E+001	9.3321763E-003	-2.3266959E+000	0	-7.0773618E-005
6.376339838920103E+001	9.3703605E-003	-2.2762837E+000	0	4.3764623E-005
6.384799838706385E+001	9.2939930E-003	-2.2261262E+000	0	-7.0773618E-005
6.393779838479531E+001	9.3703605E-003	-2.1756504E+000	0	-7.0773618E-005
6.403079838244594E+001	9.4467280E-003	-2.1251745E+000	0	6.2854328E-005
6.412779837999551E+001	9.2558088E-003	-2.0751443E+000	0	-1.0895303E-004
6.422839837745414E+001	9.3321763E-003	-2.0251141E+000	0	-1.0895303E-004
6.433239837482688E+001	9.3512684E-003	-1.9747016E+000	0	-7.0773618E-005
6.444479837198742E+001	9.3321763E-003	-1.9241621E+000	0	-1.4713245E-004
6.456379836898122E+001	9.3512684E-003	-1.8740048E+000	0	-5.1683910E-005
6.468619836588914E+001	9.2939930E-003	-1.8239746E+000	0	-3.2594202E-005
6.481819836255454E+001	9.3703605E-003	-1.7738169E+000	0	-7.0773618E-005
6.495639835906331E+001	9.3512684E-003	-1.7237231E+000	0	-7.0773618E-005
6.510259835536999E+001	9.4276359E-003	-1.6731836E+000	0	-1.0895303E-004
6.525819835143921E+001	9.3321763E-003	-1.6231533E+000	0	1.7739256E-004
6.542459834723559E+001	9.3703605E-003	-1.5728685E+000	0	4.3764623E-005
6.560339834271872E+001	9.3130842E-003	-1.5226474E+000	0	-3.2594202E-005
6.579399833790376E+001	9.2749009E-003	-1.4721714E+000	0	4.3764623E-005
6.599479833283112E+001	9.3130842E-003	-1.4218230E+000	0	5.5852106E-006
6.621659832722798E+001	9.4085438E-003	-1.3716655E+000	0	-5.1683910E-005
6.645359832124086E+001	9.3512684E-003	-1.3216352E+000	0	-5.1683910E-005
6.671259831469797E+001	9.2749009E-003	-1.2716050E+000	0	-7.0773618E-005
6.698279830787214E+001	9.3894526E-003	-1.2214475E+000	0	-8.9863323E-005
6.729159830007120E+001	9.3894526E-003	-1.1713536E+000	0	6.2854328E-005
6.762339829168923E+001	9.4276359E-003	-1.1211960E+000	0	-5.1683910E-005
6.798979828243318E+001	9.3894526E-003	-1.0710385E+000	0	-5.1683910E-005
6.839299827224750E+001	9.3321763E-003	-1.0209446E+000	0	-1.3504496E-005
6.884179826090985E+001	9.3321763E-003	-9.7091430E-001	0	1.3921315E-004
6.934599824817269E+001	9.3703605E-003	-9.2088407E-001	0	5.5852106E-006
6.991759823373286E+001	9.2939930E-003	-8.7085384E-001	0	2.4674917E-005
7.055919821752468E+001	9.3512684E-003	-8.2075989E-001	0	-3.2594202E-005
7.130459819869429E+001	9.3894526E-003	-7.7060246E-001	0	2.4674917E-005
7.216619817692845E+001	9.2939930E-003	-7.2050852E-001	0	2.4674917E-005
7.319159815102466E+001	9.3703605E-003	-6.7016006E-001	0	6.2854328E-005
7.443259811967437E+001	9.3512684E-003	-6.2012982E-001	0	-3.2594202E-005
7.591999808209948E+001	9.4467280E-003	-5.7009959E-001	0	8.1944032E-005
7.781419803424797E+001	9.4276359E-003	-5.1968741E-001	0	-1.4713245E-004
8.028519797182526E+001	9.2939930E-003	-4.6952987E-001	0	-7.0773618E-005
8.377739788360486E+001	9.2939930E-003	-4.1947350E-001	0	-5.1683910E-005
8.832699776867230E+001	9.3512684E-003	-3.6934760E-001	0	5.5852106E-006
9.506499759845610E+001	9.3321763E-003	-3.1929177E-001	0	-3.2594202E-005
1.050649973458349E+002	9.4085438E-003	-2.7050877E-001	0	6.2854328E-005
1.150649970932136E+002	9.4085438E-003	-2.3812045E-001	0	-8.9863323E-005
1.250649968405924E+002	9.3894526E-003	-2.1516411E-001	0	-7.0773618E-005
1.350649965879711E+002	9.4085438E-003	-1.9704472E-001	0	-1.3504496E-005
1.450649963353499E+002	9.3703605E-003	-1.8347585E-001	0	-8.9863323E-005
1.550649960827286E+002	9.4085438E-003	-1.7087437E-001	0	5.5852106E-006
1.650649958301074E+002	9.3321763E-003	-1.5952669E-001	0	5.5852106E-006
1.750649955774861E+002	9.3703605E-003	-1.5006922E-001	0	-8.9863323E-005
1.850649953248649E+002	9.3130842E-003	-1.4179553E-001	0	6.2854328E-005
1.950649950722436E+002	9.2749009E-003	-1.3460378E-001	0	5.5852106E-006
2.050649948196224E+002	9.3512684E-003	-1.2825213E-001	0	4.3764623E-005
2.150649945670011E+002	9.4658202E-003	-1.2259419E-001	0	-1.3504496E-005
2.250649943143799E+002	9.3321763E-003	-1.1786546E-001	0	2.4674917E-005
2.350649940617586E+002	9.4276359E-003	-1.1282487E-001	0	-5.1683910E-005
2.450649938091374E+002	9.3703605E-003	-1.0917171E-001	0	-1.0895303E-004
2.550649935565161E+002	9.3512684E-003	-1.0514943E-001	0	-1.0895303E-004
2.650649933038949E+002	9.3703605E-003	-1.0152809E-001	0	6.2854328E-005
2.750649930512736E+002	9.3894526E-003	-9.8040409E-002	0	5.5852106E-006
2.850649927986524E+002	9.3703605E-003	-9.5361009E-002	0	-1.3504496E-005
2.950649925460311E+002	9.4849113E-003	-9.2535220E-002	0	-1.0895303E-004
3.050649922934099E+002	9.2367167E-003	-8.9677617E-002	0	-8.9863323E-005
3.150649920407886E+002	9.3321763E-003	-8.7119132E-002	0	8.1944032E-005
3.250649917881674E+002	9.4085438E-003	-8.4503375E-002	0	-8.9863323E-005
3.350649915355461E+002	9.3512684E-003	-8.1722133E-002	0	-5.1683910E-005
3.450649912829249E+002	9.2939930E-003	-7.9348221E-002	0	-1.3504496E-005
3.550649910303036E+002	9.3894526E-003	-7.7139780E-002	0	-7.0773618E-005
3.650649907776824E+002	9.3512684E-003	-7.5058632E-002	0	-3.2594202E-005
3.750649905250611E+002	9.2939930E-003	-7.3072940E-002	0	8.1944032E-005
3.850649902724399E+002	9.5040035E-003	-7.1087256E-002	0	2.4674917E-005
3.950649900198187E+002	9.3894526E-003	-6.9082476E-002	0	-1.3504496E-005
4.050649897671974E+002	9.2749009E-003	-6.7472287E-002	0	-1.4713245E-004
4.150649895145762E+002	9.3894526E-003	-6.5798454E-002	0	-1.3504496E-005
4.250649892619549E+002	9.3703605E-003	-6.4302824E-002	0	-1.6622215E-004
4.350649890093337E+002	9.3703605E-003	-6.2533528E-002	0	-1.3504496E-005
4.450649887567124E+002	9.3512684E-003	-6.0789689E-002	0	-3.2594202E-005
4.550649885040912E+002	9.2939930E-003	-5.9383158E-002	0	-3.2594202E-005
4.650649882514699E+002	9.4085438E-003	-5.8154833E-002	0	8.1944032E-005
4.750649879988487E+002	9.3321763E-003	-5.6920145E-002	0	6.2854328E-005
4.850649877462274E+002	9.2367167E-003	-5.5131752E-002	0	5.5852106E-006
4.950649874936062E+002	9.4849113E-003	-5.4380756E-002	0	-1.3504496E-005
5.050649872409849E+002	9.3894526E-003	-5.3477015E-002	0	-8.9863323E-005
5.150649869883637E+002	9.3321763E-003	-5.1917739E-002	0	-1.3504496E-005
5.250649867357424E+002	9.4467280E-003	-5.0778512E-002	0	1.0103374E-004
5.350649864831212E+002	9.3321763E-003	-4.9441997E-002	0	-5.1683910E-005
5.450649862304999E+002	9.3321763E-003	-4.8901021E-002	0	2.4674917E-005
5.550649859778787E+002	9.4085438E-003	-4.7959097E-002	0	-8.9863323E-005
5.650649857252574E+002	9.3321763E-003	-4.6730768E-002	0	5.5852106E-006
5.750649854726362E+002	9.3703605E-003	-4.6100695E-002	0	-1.3504496E-005
5.850649852200149E+002	9.1985334E-003	-4.4923287E-002	0	6.2854328E-005
5.950649849673937E+002	9.4276359E-003	-4.4367559E-002	0	-8.9863323E-005
6.050649847147724E+002	9.4658202E-003	-4.3409973E-002	0	-1.2804274E-004
6.150649844621512E+002	9.3512684E-003	-4.2567547E-002	0	6.2854328E-005
6.250649842095299E+002	9.3512684E-003	-4.2112615E-002	0	-1.3504496E-005
6.350649839569087E+002	9.4085438E-003	-4.1183658E-002	0	5.5852106E-006
6.450649837042874E+002	9.3703605E-003	-4.0515576E-002	0	-7.0773618E-005
6.550649834516662E+002	9.4085438E-003	-3.9592344E-002	0	5.5852106E-006
6.650649831990449E+002	9.3703605E-003	-3.8823728E-002	0	1.0103374E-004
6.750649829464237E+002	9.2749009E-003	-3.8257446E-002	0	-3.2594202E-005
6.850649826938024E+002	9.3512684E-003	-3.7535276E-002	0	-8.9863323E-005
6.950649824411812E+002	9.3512684E-003	-3.6823288E-002	0	-1.3504496E-005
7.050649821885600E+002	9.3894526E-003	-3.6152024E-002	0	-8.9863323E-005
7.150649819359387E+002	9.3321763E-003	-3.5668455E-002	0	8.1944032E-005
7.250649816833175E+002	9.4658202E-003	-3.4981281E-002	0	5.5852106E-006
7.350649814306962E+002	9.4276359E-003	-3.4469083E-002	0	-8.9863323E-005
7.450649811780750E+002	9.4085438E-003	-3.3946071E-002	0	-1.3504496E-005
7.550649809254537E+002	9.2939930E-003	-3.3365790E-002	0	6.2854328E-005
7.650649806728325E+002	9.3894526E-003	-3.2787420E-002	0	5.5852106E-006
7.750649804202112E+002	9.3321763E-003	-3.2118697E-002	0	5.5852106E-006
7.850649801675900E+002	9.4085438E-003	-3.1671397E-002	0	-1.3504496E-005
7.950649799149687E+002	9.3130842E-003	-3.1123569E-002	0	-5.1683910E-005
8.050649796623475E+002	9.3321763E-003	-3.0642547E-002	0	5.5852106E-006
8.150649794097262E+002	9.4085438E-003	-3.0036816E-002	0	-7.0773618E-005
8.250649791571050E+002	9.3130842E-003	-2.9577430E-002	0	-1.3504496E-005
8.350649789044837E+002	9.3894526E-003	-2.9239569E-002	0	-3.2594202E-005
8.450649786518625E+002	9.4276359E-003	-2.8674560E-002	0	-8.9863323E-005
8.550649783992412E+002	9.3321763E-003	-2.8280074E-002	0	-3.2594202E-005
8.650649781466200E+002	9.3321763E-003	-2.7848043E-002	0	-5.1683910E-005
8.750649778939987E+002	9.3894526E-003	-2.7440829E-002	0	-5.1683910E-005
8.850649776413775E+002	9.3894526E-003	-2.6873278E-002	0	2.4674917E-005
8.950649773887562E+002	9.3894526E-003	-2.7062248E-002	0	5.5852106E-006
9.050649771361350E+002	9.3321763E-003	-2.6691938E-002	0	2.4674917E-005
9.150649768835137E+002	9.3512684E-003	-2.6298087E-002	0	-1.3504496E-005
9.250649766308925E+002	9.4085438E-003	-2.5741983E-002	0	-3.2594202E-005
9.350649763782712E+002	9.3512684E-003	-2.5439119E-002	0	-5.1683910E-005
9.450649761256500E+002	9.3321763E-003	-2.5669448E-002	0	1.5830285E-004
9.550649758730287E+002	9.2939930E-003	-2.5012819E-002	0	-7.0773618E-005
9.650649756204075E+002	9.3512684E-003	-2.4519071E-002	0	-5.1683910E-005
9.750649753677862E+002	9.2939930E-003	-2.4298286E-002	0	-8.9863323E-005
9.850649751151650E+002	9.3894526E-003	-2.3894254E-002	0	-1.8531186E-004
9.950649748625438E+002	9.4085438E-003	-2.3513125E-002	0	2.4674917E-005
1.005064974609923E+003	9.2749009E-003	-2.3105912E-002	0	-3.2594202E-005
1.015064974357301E+003	9.2749009E-003	-2.3133909E-002	0	-1.6622215E-004
1.025064974104680E+003	9.4849113E-003	-2.2781415E-002	0	-3.2594202E-005
1.035064973852059E+003	9.3321763E-003	-2.2508454E-002	0	-7.0773618E-005
1.045064973599438E+003	9.3512684E-003	-2.2144506E-002	0	-7.0773618E-005
1.055064973346816E+003	9.3321763E-003	-2.2020433E-002	0	-8.9863323E-005
1.065064973094195E+003	9.4467280E-003	-2.1702299E-002	0	-7.0773618E-005
1.075064972841574E+003	9.4276359E-003	-2.1463059E-002	0	-1.3504496E-005
1.085064972588953E+003	9.2939930E-003	-2.1115020E-002	0	-3.2594202E-005
1.095064972336331E+003	9.2176255E-003	-2.1188190E-002	0	4.3764623E-005
1.105064972083710E+003	9.3894526E-003	-2.0856693E-002	0	-7.0773618E-005
1.115064971831089E+003	9.4085438E-003	-2.0526465E-002	0	6.2854328E-005
1.125064971578468E+003	9.3703605E-003	-2.0406211E-002	0	6.2854328E-005
1.135064971325846E+003	9.4467280E-003	-2.0090621E-002	0	4.3764623E-005
1.145064971073225E+003	9.3321763E-003	-1.9738764E-002	0	1.2012345E-004
1.155064970820604E+003	9.4849113E-003	-1.9589238E-002	0	-8.9863323E-005
1.165064970567983E+003	9.3130842E-003	-1.9454986E-002	0	2.4674917E-005
1.175064970315361E+003	9.4467280E-003	-1.9237380E-002	0	4.3764623E-005
1.185064970062740E+003	9.4085438E-003	-1.9002596E-002	0	-5.1683910E-005
1.195064969810119E+003	9.2367167E-003	-1.9081494E-002	0	-3.2594202E-005
1.205064969557498E+003	9.3321763E-003	-1.8763360E-002	0	-8.9863323E-005
1.215064969304876E+003	9.3894526E-003	-1.8513305E-002	0	-3.2594202E-005
1.225064969052255E+003	9.3512684E-003	-1.8332602E-002	0	2.4674917E-005
1.235064968799634E+003	9.4085438E-003	-1.8124543E-002	0	-5.1683910E-005
1.245064968547013E+003	9.3130842E-003	-1.7969294E-002	0	-3.2594202E-005
1.255064968294391E+003	9.3703605E-003	-1.7790498E-002	0	-3.2594202E-005
1.265064968041770E+003	9.3512684E-003	-1.7612981E-002	0	5.5852106E-006
1.275064967789149E+003	9.2749009E-003	-1.7461548E-002	0	-1.3504496E-005
1.285064967536528E+003	9.4276359E-003	-1.7298026E-002	0	4.3764623E-005
1.295064967283906E+003	9.3512684E-003	-1.7675970E-002	0	-1.3504496E-005
1.305064967031285E+003	9.3130842E-003	-1.7040970E-002	0	-5.1683910E-005
1.315064966778664E+003	9.3321763E-003	-1.6892085E-002	0	6.2854328E-005
1.325064966526043E+003	9.3512684E-003	-1.6741926E-002	0	-5.1683910E-005
1.335064966273421E+003	9.4085438E-003	-1.6640758E-002	0	6.2854328E-005
1.345064966020800E+003	9.3130842E-003	-1.6449876E-002	0	-7.0773618E-005
1.355064965768179E+003	9.3512684E-003	-1.6238634E-002	0	2.4674917E-005
1.365064965515558E+003	9.3130842E-003	-1.6152738E-002	0	4.3764623E-005
1.375064965262936E+003	9.4658202E-003	-1.6093563E-002	0	-8.9863323E-005
1.385064965010315E+003	9.4085438E-003	-1.5835237E-002	0	-7.0773618E-005
1.395064964757694E+003	9.3512684E-003	-1.5765246E-002	0	6.2854328E-005
1.405064964505073E+003	9.4467280E-003	-1.5895046E-002	0	2.4674917E-005
1.415064964252451E+003	9.3321763E-003	-1.5728345E-002	0	2.4674917E-005
1.425064963999830E+003	9.4276359E-003	-1.5545734E-002	0	2.4674917E-005
1.435064963747209E+003	9.3894526E-003	-1.5340854E-002	0	-1.3504496E-005
1.445064963494588E+003	9.3894526E-003	-1.5230143E-002	0	-1.0895303E-004
1.455064963241966E+003	9.3130842E-003	-1.5158245E-002	0	2.4674917E-005
1.465064962989345E+003	9.3321763E-003	-1.5008084E-002	0	5.5852106E-006
1.475064962736724E+003	9.2176255E-003	-1.4891647E-002	0	5.5852106E-006
1.485064962484103E+003	9.3894526E-003	-1.4675951E-002	0	2.4674917E-005
1.495064962231481E+003	9.3321763E-003	-1.4887829E-002	0	6.2854328E-005
1.505064961978860E+003	9.3321763E-003	-1.4670861E-002	0	-5.1683910E-005
1.515064961726239E+003	9.3703605E-003	-1.4522609E-002	0	8.1944032E-005
1.525064961473618E+003	9.3321763E-003	-1.4560785E-002	0	4.3764623E-005
1.535064961220996E+003	9.4467280E-003	-1.4329182E-002	0	2.4674917E-005
1.545064960968375E+003	9.3512684E-003	-1.4154845E-002	0	-1.0895303E-004
1.555064960715754E+003	9.3130842E-003	-1.4095035E-002	0	4.3764623E-005
1.565064960463133E+003	9.3703605E-003	-1.3920696E-002	0	-5.1683910E-005
1.575064960210511E+003	9.3321763E-003	-1.3828437E-002	0	-1.0895303E-004
1.585064959957890E+003	9.3512684E-003	-1.3652191E-002	0	8.1944032E-005
1.595064959705269E+003	9.2749009E-003	-1.3533844E-002	0	1.0103374E-004
1.605064959452648E+003	9.3512684E-003	-1.3388774E-002	0	-8.9863323E-005
1.615064959200026E+003	9.4467280E-003	-1.3283152E-002	0	-1.0895303E-004
1.625064958947405E+003	9.3703605E-003	-1.3461309E-002	0	-8.9863323E-005
1.635064958694784E+003	9.3894526E-003	-1.3258338E-002	0	-1.0895303E-004
1.645064958442163E+003	9.3321763E-003	-1.3021008E-002	0	-8.9863323E-005
1.655064958189541E+003	9.4276359E-003	-1.3115177E-002	0	2.4674917E-005
1.665064957936920E+003	9.2558088E-003	-1.2966925E-002	0	1.0103374E-004
1.675064957684299E+003	9.3130842E-003	-1.2843489E-002	0	-1.3504496E-005
1.685064957431678E+003	9.3512684E-003	-1.2752502E-002	0	-7.0773618E-005
1.695064957179056E+003	9.3703605E-003	-1.2799586E-002	0	4.3764623E-005
1.705064956926435E+003	9.3894526E-003	-1.2625883E-002	0	-1.4713245E-004
1.715064956673814E+003	9.3321763E-003	-1.2511992E-002	0	-1.0895303E-004
1.725064956421193E+003	9.2939930E-003	-1.2459181E-002	0	4.3764623E-005
1.735064956168571E+003	9.2939930E-003	-1.2390464E-002	0	2.4674917E-005
1.745064955915950E+003	9.3512684E-003	-1.2193220E-002	0	-1.3504496E-005
1.755064955663329E+003	9.2939930E-003	-1.2985378E-002	0	6.2854328E-005
1.765064955410708E+003	9.3321763E-003	-1.2839670E-002	0	-7.0773618E-005
1.775064955158086E+003	9.2749009E-003	-1.2667242E-002	0	5.5852106E-006
1.785064954905465E+003	9.4467280E-003	-1.2706054E-002	0	2.4674917E-005
1.795064954652844E+003	9.3130842E-003	-1.2536169E-002	0	4.3764623E-005
1.805064954400223E+003	9.4276359E-003	-1.2335745E-002	0	-1.2804274E-004
1.815064954147601E+003	9.3130842E-003	-1.2341470E-002	0	4.3764623E-005
1.825064953894980E+003	9.2939930E-003	-1.2301385E-002	0	-1.3504496E-005
1.835064953642359E+003	9.2939930E-003	-1.2183676E-002	0	-3.2594202E-005
1.845064953389738E+003	9.4467280E-003	-1.2076782E-002	0	-1.3504496E-005
1.855064953137116E+003	9.3894526E-003	-1.2062784E-002	0	-5.1683910E-005
1.860052753011114E+003	9.3894526E-003	-1.1933621E-002	0	-7.0773618E-005