time/s	Ewe/V	I/mA	error	Ece/V	
1.860205753007249E+003	-2.7044546E-002	-1.1227094E+000	0	-4.2112410E-004
1.860205953007244E+003	-4.5005713E-002	-1.1306856E+000	0	5.9916987E-005
1.860206153007239E+003	-5.1081888E-002	-1.1307747E+000	0	1.5352466E-004
1.860206353007234E+003	-5.3983312E-002	-1.1307812E+000	0	7.7181190E-005
1.860206553007229E+003	-5.5758525E-002	-1.1307938E+000	0	9.6267060E-005
1.860206753007224E+003	-5.7151973E-002	-1.1308256E+000	0	3.9009457E-005
1.860206953007219E+003	-5.8449976E-002	-1.1308256E+000	0	1.1535293E-004
1.860207353007208E+003	-6.0320631E-002	-1.1307747E+000	0	1.9923591E-005
1.860207753007198E+003	-6.1981313E-002	-1.1308066E+000	0	1.7261053E-004
1.860208153007188E+003	-6.3508376E-002	-1.1307747E+000	0	1.9923591E-005
1.860208553007178E+003	-6.4882733E-002	-1.1308002E+000	0	2.4895399E-004
1.860208953007168E+003	-6.6295274E-002	-1.1308384E+000	0	7.7181190E-005
1.860209353007158E+003	-6.7402393E-002	-1.1307557E+000	0	8.3772284E-007
1.860209753007148E+003	-6.8853103E-002	-1.1307493E+000	0	-7.5505755E-005
1.860210153007138E+003	-6.9883876E-002	-1.1308129E+000	0	-1.8248145E-005
1.860210553007128E+003	-7.1124613E-002	-1.1307938E+000	0	1.7261053E-004
1.860210953007118E+003	-7.2441705E-002	-1.1307366E+000	0	2.1078227E-004
1.860211353007107E+003	-7.3453389E-002	-1.1308129E+000	0	1.9169640E-004
1.860211753007097E+003	-7.4560508E-002	-1.1307366E+000	0	1.1535293E-004
1.860212153007087E+003	-7.5648539E-002	-1.1308384E+000	0	9.6267060E-005
1.860212553007077E+003	-7.6698400E-002	-1.1308575E+000	0	1.9923591E-005
1.860212953007067E+003	-7.7767342E-002	-1.1308384E+000	0	1.3443880E-004
1.860213553007052E+003	-7.9294406E-002	-1.1308129E+000	0	1.5352466E-004
1.860213953007042E+003	-8.0420621E-002	-1.1308193E+000	0	1.3443880E-004
1.860214353007032E+003	-8.1432298E-002	-1.1308129E+000	0	2.1078227E-004
1.860214953007016E+003	-8.2806662E-002	-1.1308575E+000	0	3.9009457E-005
1.860215353007006E+003	-8.3856516E-002	-1.1307493E+000	0	5.8095327E-005
1.860215953006991E+003	-8.5269049E-002	-1.1307938E+000	0	2.4895399E-004
1.860216553006976E+003	-8.6719759E-002	-1.1308702E+000	0	5.8095327E-005
1.860217153006961E+003	-8.8189565E-002	-1.1307621E+000	0	1.3443880E-004
1.860217553006951E+003	-8.9220330E-002	-1.1307621E+000	0	8.3772284E-007
1.860218153006936E+003	-9.0518333E-002	-1.1308256E+000	0	2.2986814E-004
1.860218753006920E+003	-9.1759078E-002	-1.1308448E+000	0	7.7181190E-005
1.860219353006905E+003	-9.2961639E-002	-1.1308193E+000	0	1.1535293E-004
1.860219953006890E+003	-9.4450526E-002	-1.1308129E+000	0	7.7181190E-005
1.860220553006875E+003	-9.5767617E-002	-1.1308129E+000	0	1.9923591E-005
1.860221153006860E+003	-9.6951097E-002	-1.1308321E+000	0	8.3772284E-007
1.860221753006845E+003	-9.8210923E-002	-1.1308066E+000	0	9.6267060E-005
1.860222353006830E+003	-9.9432573E-002	-1.1307812E+000	0	3.9009457E-005
1.860222953006814E+003	-1.0067332E-001	-1.1307812E+000	0	-1.8248145E-005
1.860223553006799E+003	-1.0206676E-001	-1.1307812E+000	0	9.6267060E-005
1.860224153006784E+003	-1.0326932E-001	-1.1308384E+000	0	3.9009457E-005
1.860224753006769E+003	-1.0430010E-001	-1.1308448E+000	0	1.3443880E-004
1.860225353006754E+003	-1.0548357E-001	-1.1308256E+000	0	1.3443880E-004
1.860225953006739E+003	-1.0672431E-001	-1.1308002E+000	0	1.9169640E-004
1.860226553006723E+003	-1.0783143E-001	-1.1307938E+000	0	9.6267060E-005
1.860227153006708E+003	-1.0897673E-001	-1.1307747E+000	0	3.9009457E-005
1.860227753006693E+003	-1.1016021E-001	-1.1307812E+000	0	3.9009457E-005
1.860228353006678E+003	-1.1126733E-001	-1.1308002E+000	0	1.9923591E-005
1.860228953006663E+003	-1.1239354E-001	-1.1307493E+000	0	-5.6419882E-005
1.860229553006648E+003	-1.1348157E-001	-1.1307430E+000	0	7.7181190E-005
1.860230153006632E+003	-1.1455052E-001	-1.1308256E+000	0	5.8095327E-005
1.860230753006617E+003	-1.1561946E-001	-1.1307557E+000	0	5.8095327E-005
1.860231353006602E+003	-1.1666932E-001	-1.1308384E+000	0	1.5352466E-004
1.860231953006587E+003	-1.1773826E-001	-1.1308575E+000	0	2.1078227E-004
1.860232553006572E+003	-1.1888357E-001	-1.1307812E+000	0	1.9169640E-004
1.860233153006557E+003	-1.1999068E-001	-1.1307621E+000	0	8.3772284E-007
1.860233953006536E+003	-1.2119325E-001	-1.1308066E+000	0	7.7181190E-005
1.860234553006521E+003	-1.2228128E-001	-1.1307747E+000	0	1.1535293E-004
1.860235153006506E+003	-1.2335023E-001	-1.1307430E+000	0	9.6267060E-005
1.860235953006486E+003	-1.2462915E-001	-1.1308511E+000	0	2.1078227E-004
1.860236553006471E+003	-1.2571718E-001	-1.1308702E+000	0	3.9009457E-005
1.860237353006451E+003	-1.2688155E-001	-1.1308256E+000	0	3.9009457E-005
1.860238153006430E+003	-1.2827501E-001	-1.1308384E+000	0	9.6267060E-005
1.860238953006410E+003	-1.2961119E-001	-1.1308002E+000	0	2.4895399E-004
1.860239753006390E+003	-1.3075648E-001	-1.1308575E+000	0	-7.5505755E-005
1.860240353006375E+003	-1.3180634E-001	-1.1308321E+000	0	7.7181190E-005
1.860241153006355E+003	-1.3302800E-001	-1.1308321E+000	0	7.7181190E-005
1.860241953006334E+003	-1.3426873E-001	-1.1308575E+000	0	-3.7334015E-005
1.860242753006314E+003	-1.3550948E-001	-1.1307684E+000	0	1.1535293E-004
1.860243553006294E+003	-1.3669296E-001	-1.1308448E+000	0	2.1078227E-004
1.860244353006274E+003	-1.3783824E-001	-1.1308256E+000	0	1.3443880E-004
1.860245153006254E+003	-1.3900264E-001	-1.1308830E+000	0	1.5352466E-004
1.860245953006233E+003	-1.4016703E-001	-1.1308384E+000	0	2.4895399E-004
1.860246753006213E+003	-1.4119779E-001	-1.1308002E+000	0	9.6267060E-005
1.860247353006198E+003	-1.4220947E-001	-1.1308321E+000	0	-1.8248145E-005
1.860248153006178E+003	-1.4331660E-001	-1.1307493E+000	0	1.5352466E-004
1.860248953006158E+003	-1.4448099E-001	-1.1308066E+000	0	-3.7334015E-005
1.860249753006137E+003	-1.4566445E-001	-1.1307812E+000	0	7.7181190E-005
1.860250753006112E+003	-1.4707699E-001	-1.1308767E+000	0	1.3443880E-004
1.860251753006087E+003	-1.4824139E-001	-1.1307938E+000	0	1.1535293E-004
1.860252553006067E+003	-1.4927214E-001	-1.1308193E+000	0	3.9009457E-005
1.860253353006046E+003	-1.5047471E-001	-1.1307747E+000	0	1.3443880E-004
1.860254153006026E+003	-1.5154366E-001	-1.1307938E+000	0	5.8095327E-005
1.860255153006001E+003	-1.5276530E-001	-1.1308321E+000	0	-3.7334015E-005
1.860255953005981E+003	-1.5381517E-001	-1.1308384E+000	0	1.9923591E-005
1.860256953005955E+003	-1.5499865E-001	-1.1307684E+000	0	5.8095327E-005
1.860257753005935E+003	-1.5601031E-001	-1.1308256E+000	0	8.3772284E-007
1.860258753005910E+003	-1.5723197E-001	-1.1308066E+000	0	3.9009457E-005
1.860259553005890E+003	-1.5824366E-001	-1.1307938E+000	0	1.5352466E-004
1.860260553005864E+003	-1.5942712E-001	-1.1308448E+000	0	1.9923591E-005
1.860261553005839E+003	-1.6061060E-001	-1.1307621E+000	0	9.6267060E-005
1.860262353005819E+003	-1.6162229E-001	-1.1308193E+000	0	5.8095327E-005
1.860263353005794E+003	-1.6278668E-001	-1.1308066E+000	0	1.1535293E-004
1.860264353005769E+003	-1.6387470E-001	-1.1308256E+000	0	-7.5505755E-005
1.860265353005743E+003	-1.6505818E-001	-1.1308321E+000	0	1.9923591E-005
1.860266353005718E+003	-1.6612713E-001	-1.1307747E+000	0	9.6267060E-005
1.860267353005693E+003	-1.6719607E-001	-1.1307938E+000	0	1.3443880E-004
1.860268353005667E+003	-1.6832228E-001	-1.1308575E+000	0	1.5352466E-004
1.860269353005642E+003	-1.6950576E-001	-1.1308511E+000	0	7.7181190E-005
1.860270553005612E+003	-1.7074649E-001	-1.1308066E+000	0	1.7261053E-004
1.860271753005582E+003	-1.7200632E-001	-1.1307621E+000	0	1.7261053E-004
1.860272953005551E+003	-1.7317072E-001	-1.1308321E+000	0	8.3772284E-007
1.860273953005526E+003	-1.7429692E-001	-1.1307812E+000	0	9.6267060E-005
1.860275153005496E+003	-1.7540404E-001	-1.1308321E+000	0	5.8095327E-005
1.860276353005465E+003	-1.7654935E-001	-1.1307493E+000	0	8.3772284E-007
1.860277553005435E+003	-1.7773281E-001	-1.1307747E+000	0	5.8095327E-005
1.860278553005410E+003	-1.7883994E-001	-1.1307430E+000	0	3.9009457E-005
1.860279953005374E+003	-1.8013795E-001	-1.1307493E+000	0	5.8095327E-005
1.860281353005339E+003	-1.8132141E-001	-1.1307621E+000	0	1.9923591E-005
1.860282553005309E+003	-1.8239036E-001	-1.1308193E+000	0	1.5352466E-004
1.860283553005283E+003	-1.8342113E-001	-1.1308066E+000	0	7.7181190E-005
1.860284753005253E+003	-1.8445191E-001	-1.1308256E+000	0	9.6267060E-005
1.860285953005223E+003	-1.8555902E-001	-1.1308193E+000	0	1.9923591E-005
1.860287353005187E+003	-1.8664706E-001	-1.1308321E+000	0	3.9009457E-005
1.860288553005157E+003	-1.8765874E-001	-1.1307875E+000	0	1.1535293E-004
1.860289953005122E+003	-1.8868950E-001	-1.1307938E+000	0	5.8095327E-005
1.860291353005086E+003	-1.8991116E-001	-1.1307812E+000	0	9.6267060E-005
1.860292753005051E+003	-1.9094193E-001	-1.1308256E+000	0	1.5352466E-004
1.860294153005016E+003	-1.9199178E-001	-1.1307938E+000	0	1.3443880E-004
1.860295553004980E+003	-1.9306073E-001	-1.1307621E+000	0	7.7181190E-005
1.860297153004940E+003	-1.9420603E-001	-1.1307938E+000	0	-1.8248145E-005
1.860298753004899E+003	-1.9533224E-001	-1.1308384E+000	0	5.8095327E-005
1.860300353004859E+003	-1.9643936E-001	-1.1307747E+000	0	1.1535293E-004
1.860301953004819E+003	-1.9747013E-001	-1.1308066E+000	0	5.8095327E-005
1.860303753004773E+003	-1.9851999E-001	-1.1308321E+000	0	7.7181190E-005
1.860305553004728E+003	-1.9964619E-001	-1.1308384E+000	0	9.6267060E-005
1.860307553004677E+003	-2.0077240E-001	-1.1308066E+000	0	1.9923591E-005
1.860309553004627E+003	-2.0186044E-001	-1.1307684E+000	0	9.6267060E-005
1.860311553004576E+003	-2.0289122E-001	-1.1307812E+000	0	7.7181190E-005
1.860313953004516E+003	-2.0390289E-001	-1.1308256E+000	0	1.5352466E-004
1.860316353004455E+003	-2.0493366E-001	-1.1308767E+000	0	7.7181190E-005
1.860319153004384E+003	-2.0596443E-001	-1.1307747E+000	0	7.7181190E-005
1.860322553004298E+003	-2.0703337E-001	-1.1307621E+000	0	3.9009457E-005
1.860326953004187E+003	-2.0806414E-001	-1.1308384E+000	0	7.7181190E-005
1.860347553003667E+003	-2.0705245E-001	-1.1308129E+000	0	1.9923591E-005
1.860351553003566E+003	-2.0598352E-001	-1.1307747E+000	0	7.7181190E-005
1.860354553003490E+003	-2.0489548E-001	-1.1308002E+000	0	1.1535293E-004
1.860357553003414E+003	-2.0376927E-001	-1.1307684E+000	0	1.3443880E-004
1.860360553003338E+003	-2.0270033E-001	-1.1308002E+000	0	1.5352466E-004
1.860363153003273E+003	-2.0159321E-001	-1.1308002E+000	0	1.5352466E-004
1.860366153003197E+003	-2.0040973E-001	-1.1308002E+000	0	5.8095327E-005
1.860368953003126E+003	-1.9932169E-001	-1.1308129E+000	0	3.9009457E-005
1.860371353003065E+003	-1.9823366E-001	-1.1307875E+000	0	1.1535293E-004
1.860373953003000E+003	-1.9722198E-001	-1.1308002E+000	0	-1.8248145E-005
1.860376553002934E+003	-1.9615303E-001	-1.1308702E+000	0	1.7261053E-004
1.860379353002863E+003	-1.9512227E-001	-1.1307938E+000	0	2.1078227E-004
1.860381953002798E+003	-1.9407241E-001	-1.1308066E+000	0	-9.4591618E-005
1.860384953002722E+003	-1.9298437E-001	-1.1307747E+000	0	3.9009457E-005
1.860387553002656E+003	-1.9195361E-001	-1.1308384E+000	0	-1.8248145E-005
1.860390753002575E+003	-1.9092284E-001	-1.1307366E+000	0	5.8095327E-005
1.860393753002500E+003	-1.8991116E-001	-1.1307684E+000	0	2.4895399E-004
1.860396953002419E+003	-1.8884221E-001	-1.1308639E+000	0	1.9923591E-005
1.860400553002328E+003	-1.8781145E-001	-1.1308256E+000	0	1.7261053E-004
1.860403953002242E+003	-1.8674250E-001	-1.1308321E+000	0	1.1535293E-004
1.860408553002126E+003	-1.8553993E-001	-1.1308448E+000	0	1.3443880E-004
1.860412353002030E+003	-1.8452826E-001	-1.1308448E+000	0	9.6267060E-005
1.860416753001919E+003	-1.8351658E-001	-1.1308129E+000	0	7.7181190E-005
1.860421153001807E+003	-1.8250489E-001	-1.1308193E+000	0	1.9923591E-005
1.860425953001686E+003	-1.8143594E-001	-1.1308002E+000	0	-1.8248145E-005
1.860431753001540E+003	-1.8030974E-001	-1.1308321E+000	0	2.6803988E-004
1.860437953001383E+003	-1.7929806E-001	-1.1307430E+000	0	3.9009457E-005
1.860443953001231E+003	-1.7822911E-001	-1.1308256E+000	0	8.3772284E-007
1.860450353001070E+003	-1.7721744E-001	-1.1307938E+000	0	1.9923591E-005
1.860457553000888E+003	-1.7620575E-001	-1.1308129E+000	0	8.3772284E-007
1.860465353000691E+003	-1.7519407E-001	-1.1308129E+000	0	-1.8248145E-005
1.860473753000479E+003	-1.7416330E-001	-1.1307875E+000	0	-1.8248145E-005
1.860483353000236E+003	-1.7309436E-001	-1.1308066E+000	0	2.1078227E-004
1.860493152999989E+003	-1.7206359E-001	-1.1307938E+000	0	1.1535293E-004
1.860505352999680E+003	-1.7101373E-001	-1.1308384E+000	0	7.7181190E-005
1.860517952999362E+003	-1.7000206E-001	-1.1308384E+000	0	8.3772284E-007
1.860532752998988E+003	-1.6897129E-001	-1.1308384E+000	0	5.8095327E-005
1.860547352998619E+003	-1.6795960E-001	-1.1308129E+000	0	9.6267060E-005
1.860567152998119E+003	-1.6692883E-001	-1.1308448E+000	0	-1.8248145E-005
1.860590752997523E+003	-1.6580263E-001	-1.1307875E+000	0	1.1535293E-004
1.860616752996866E+003	-1.6475277E-001	-1.1308511E+000	0	1.9923591E-005
1.860646352996118E+003	-1.6372199E-001	-1.1308256E+000	0	9.6267060E-005
1.860682152995214E+003	-1.6269124E-001	-1.1307747E+000	0	9.6267060E-005
1.860720552994244E+003	-1.6164137E-001	-1.1308511E+000	0	7.7181190E-005
1.860770152992991E+003	-1.6062969E-001	-1.1308384E+000	0	1.3443880E-004
1.860829952991480E+003	-1.5961801E-001	-1.1307493E+000	0	7.7181190E-005
1.860896552989798E+003	-1.5860634E-001	-1.1308321E+000	0	7.7181190E-005
1.860979952987691E+003	-1.5759465E-001	-1.1308129E+000	0	3.9009457E-005
1.861072552985352E+003	-1.5656388E-001	-1.1308511E+000	0	2.6803988E-004
1.861191152982356E+003	-1.5555221E-001	-1.1308193E+000	0	1.9169640E-004
1.861321952979051E+003	-1.5454052E-001	-1.1307430E+000	0	1.5352466E-004
1.861487552974868E+003	-1.5347157E-001	-1.1308321E+000	0	1.9923591E-005
1.861685952969856E+003	-1.5242171E-001	-1.1308384E+000	0	1.1535293E-004
1.861914752964076E+003	-1.5141004E-001	-1.1308129E+000	0	9.6267060E-005
1.862174952957503E+003	-1.5039836E-001	-1.1308448E+000	0	9.6267060E-005
1.862484552949682E+003	-1.4934850E-001	-1.1308321E+000	0	9.6267060E-005
1.862880552939678E+003	-1.4833683E-001	-1.1307875E+000	0	5.8095327E-005
1.863280552929573E+003	-1.4732514E-001	-1.1308256E+000	0	1.3443880E-004
1.863776752917038E+003	-1.4629437E-001	-1.1308066E+000	0	1.3443880E-004
1.864365752902158E+003	-1.4528269E-001	-1.1307747E+000	0	5.8095327E-005
1.864954552887284E+003	-1.4427102E-001	-1.1307875E+000	0	1.9923591E-005
1.865585352871349E+003	-1.4325933E-001	-1.1307875E+000	0	1.3443880E-004
1.866306552853130E+003	-1.4222856E-001	-1.1307875E+000	0	1.9923591E-005
1.867070152833840E+003	-1.4121687E-001	-1.1308193E+000	0	5.8095327E-005
1.867875152813504E+003	-1.4020520E-001	-1.1308384E+000	0	1.5352466E-004
1.868758352791192E+003	-1.3917443E-001	-1.1309148E+000	0	-1.8248145E-005
1.869652752768598E+003	-1.3814366E-001	-1.1308702E+000	0	8.3772284E-007
1.870632552743846E+003	-1.3713199E-001	-1.1308321E+000	0	8.3772284E-007
1.871709952716628E+003	-1.3612030E-001	-1.1307747E+000	0	1.7261053E-004
1.872795952689194E+003	-1.3510862E-001	-1.1308639E+000	0	1.9923591E-005
1.874092752656434E+003	-1.3405876E-001	-1.1308256E+000	0	1.1535293E-004
1.875426952622729E+003	-1.3304709E-001	-1.1308256E+000	0	1.7261053E-004
1.877001752582946E+003	-1.3201632E-001	-1.1308002E+000	0	7.7181190E-005
1.878745952538884E+003	-1.3096645E-001	-1.1308321E+000	0	3.9009457E-005
1.880732352488703E+003	-1.2993570E-001	-1.1307938E+000	0	5.8095327E-005
1.883034752430540E+003	-1.2884766E-001	-1.1307938E+000	0	9.6267060E-005
1.885796152360781E+003	-1.2783597E-001	-1.1308702E+000	0	1.1535293E-004
1.889116952276891E+003	-1.2680520E-001	-1.1308511E+000	0	8.3772284E-007
1.893170152174498E+003	-1.2579353E-001	-1.1308193E+000	0	8.3772284E-007
1.896205552097817E+003	-1.2529723E-001	-1.1308639E+000	0	1.1535293E-004