time/s	Ewe/V	I/mA	error	Ece/V	
6.005299848293362E+001	2.5491717E+000	-2.5020160E-002	0	-8.0448727E-004
6.014319848065497E+001	9.1572776E-003	-6.9353342E+000	0	4.8959981E-005
6.014339848064992E+001	9.1381911E-003	-6.8852625E+000	0	1.0788597E-005
6.014379848063982E+001	9.2336265E-003	-6.7867732E+000	0	-8.2970946E-006
6.014419848062971E+001	9.3099754E-003	-6.6907029E+000	0	6.8045672E-005
6.014459848061961E+001	9.1763651E-003	-6.5966668E+000	0	1.0788597E-005
6.014499848060950E+001	9.2145400E-003	-6.5058126E+000	0	2.9874289E-005
6.014539848059940E+001	9.2336265E-003	-6.4168673E+000	0	6.8045672E-005
6.014579848058929E+001	9.1000162E-003	-6.3297033E+000	0	-6.5554173E-005
6.014619848057919E+001	9.2336265E-003	-6.2444487E+000	0	-8.2970946E-006
6.014659848056908E+001	9.0809288E-003	-6.1618652E+000	0	-8.2970946E-006
6.014699848055898E+001	9.2145400E-003	-6.0810637E+000	0	1.0621706E-004
6.014739848054887E+001	9.1763651E-003	-6.0026159E+000	0	2.9874289E-005
6.014779848053877E+001	9.1572776E-003	-5.9246140E+000	0	1.4438844E-004
6.014819848052866E+001	9.2908889E-003	-5.8499203E+000	0	1.0621706E-004
6.014859848051856E+001	9.2336265E-003	-5.7765622E+000	0	2.9874289E-005
6.014899848050845E+001	9.2145400E-003	-5.7037778E+000	0	1.4438844E-004
6.014939848049835E+001	9.2145400E-003	-5.6343007E+000	0	2.9874289E-005
6.014979848048824E+001	9.2145400E-003	-5.5654602E+000	0	1.0788597E-005
6.015019848047814E+001	9.2908889E-003	-5.4979558E+000	0	6.8045672E-005
6.015059848046803E+001	9.1572776E-003	-5.4329958E+000	0	-8.2970946E-006
6.015099848045793E+001	9.1572776E-003	-5.3688641E+000	0	6.8045672E-005
6.015139848044782E+001	9.1572776E-003	-5.3063226E+000	0	1.0621706E-004
6.015179848043772E+001	9.2145400E-003	-5.2444801E+000	0	8.7131360E-005
6.015219848042761E+001	9.2336265E-003	-5.1855655E+000	0	6.8045672E-005
6.015259848041751E+001	9.1572776E-003	-5.1270313E+000	0	1.0788597E-005
6.015299848040740E+001	9.2718014E-003	-5.0692616E+000	0	8.7131360E-005
6.015339848039730E+001	9.2145400E-003	-5.0130186E+000	0	1.0788597E-005
6.015379848038720E+001	9.2718014E-003	-4.9577298E+000	0	-2.7382786E-005
6.015419848037709E+001	9.2145400E-003	-4.9046044E+000	0	-8.4639862E-005
6.015459848036699E+001	9.1572776E-003	-4.8518610E+000	0	4.8959981E-005
6.015499848035688E+001	9.2336265E-003	-4.8008986E+000	0	1.8255982E-004
6.015559848034172E+001	9.2336265E-003	-4.7260776E+000	0	-2.7382786E-005
6.015619848032657E+001	9.2145400E-003	-4.6530380E+000	0	4.8959981E-005
6.015679848031141E+001	9.2336265E-003	-4.5829248E+000	0	8.7131360E-005
6.015739848029625E+001	9.1572776E-003	-4.5143390E+000	0	-1.0372556E-004
6.015799848028109E+001	9.1572776E-003	-4.4479160E+000	0	4.8959981E-005
6.015859848026594E+001	9.2527140E-003	-4.3828292E+000	0	6.8045672E-005
6.015919848025078E+001	9.1381911E-003	-4.3214965E+000	0	1.0621706E-004
6.015979848023562E+001	9.3099754E-003	-4.2601638E+000	0	-1.0372556E-004
6.016039848022047E+001	9.2145400E-003	-4.2024570E+000	0	-4.6468478E-005
6.016099848020531E+001	9.1572776E-003	-4.1444964E+000	0	2.9874289E-005
6.016159848019015E+001	9.2527140E-003	-4.0885077E+000	0	1.0788597E-005
6.016219848017499E+001	9.2527140E-003	-4.0344915E+000	0	8.7131360E-005
6.016279848015984E+001	9.2145400E-003	-3.9816203E+000	0	-6.5554173E-005
6.016339848014468E+001	9.2145400E-003	-3.9304671E+000	0	1.0788597E-005
6.016419848012447E+001	9.2336265E-003	-3.8645532E+000	0	1.0788597E-005
6.016499848010426E+001	9.3290629E-003	-3.8006756E+000	0	1.0621706E-004
6.016579848008405E+001	9.2718014E-003	-3.7388337E+000	0	-8.2970946E-006
6.016659848006384E+001	9.1381911E-003	-3.6797912E+000	0	4.8959981E-005
6.016739848004363E+001	9.1763651E-003	-3.6219575E+000	0	4.8959981E-005
6.016819848002342E+001	9.2718014E-003	-3.5655873E+000	0	2.9874289E-005
6.016899848000321E+001	9.1954526E-003	-3.5109985E+000	0	-2.7382786E-005
6.016979847998300E+001	9.2908889E-003	-3.4588273E+000	0	2.9874289E-005
6.017059847996279E+001	9.3099754E-003	-3.4085014E+000	0	1.0788597E-005
6.017159847993753E+001	9.1381911E-003	-3.3472955E+000	0	-2.7382786E-005
6.017259847991227E+001	9.3481503E-003	-3.2883165E+000	0	2.9874289E-005
6.017359847988700E+001	9.3672378E-003	-3.2313740E+000	0	-4.6468478E-005
6.017459847986174E+001	9.2527140E-003	-3.1770396E+000	0	4.8959981E-005
6.017559847983648E+001	9.2527140E-003	-3.1246140E+000	0	8.7131360E-005
6.017659847981122E+001	9.2145400E-003	-3.0734611E+000	0	8.7131360E-005
6.017779847978090E+001	9.2145400E-003	-3.0142913E+000	0	1.0621706E-004
6.017899847975059E+001	9.1572776E-003	-2.9576027E+000	0	4.8959981E-005
6.018019847972027E+001	9.2718014E-003	-2.9035230E+000	0	1.0621706E-004
6.018139847968996E+001	9.3672378E-003	-2.8498883E+000	0	-6.5554173E-005
6.018279847965459E+001	9.2145400E-003	-2.7921822E+000	0	8.7131360E-005
6.018419847961923E+001	9.1000162E-003	-2.7361300E+000	0	-2.7382786E-005
6.018559847958386E+001	9.2336265E-003	-2.6833224E+000	0	8.7131360E-005
6.018699847954849E+001	9.1954526E-003	-2.6307061E+000	0	6.8045672E-005
6.018859847950807E+001	9.2145400E-003	-2.5736358E+000	0	2.9874289E-005
6.019019847946765E+001	9.3099754E-003	-2.5203195E+000	0	-4.6468478E-005
6.019179847942723E+001	9.2908889E-003	-2.4683392E+000	0	-6.5554173E-005
6.019359847938176E+001	9.2908889E-003	-2.4124143E+000	0	6.8045672E-005
6.019539847933629E+001	9.2145400E-003	-2.3585892E+000	0	1.0788597E-005
6.019739847928577E+001	9.3672378E-003	-2.3025370E+000	0	1.8255982E-004
6.019939847923524E+001	9.2145400E-003	-2.2496023E+000	0	-4.6468478E-005
6.020139847918472E+001	9.3672378E-003	-2.1978765E+000	0	-4.6468478E-005
6.020359847912914E+001	9.2718014E-003	-2.1439874E+000	0	-8.2970946E-006
6.020599847906851E+001	9.2336265E-003	-2.0890169E+000	0	-1.0372556E-004
6.020839847900788E+001	9.2718014E-003	-2.0362096E+000	0	2.9874289E-005
6.021099847894220E+001	9.1381911E-003	-1.9822568E+000	0	2.9874289E-005
6.021359847887652E+001	9.2527140E-003	-1.9311674E+000	0	8.7131360E-005
6.021639847880579E+001	9.1572776E-003	-1.8791870E+000	0	4.8959981E-005
6.021919847873505E+001	9.2527140E-003	-1.8286064E+000	0	-2.7382786E-005
6.022239847865421E+001	9.1763651E-003	-1.7750993E+000	0	4.8959981E-005
6.022579847856832E+001	9.2718014E-003	-1.7220374E+000	0	6.8045672E-005
6.022919847848243E+001	9.2336265E-003	-1.6717112E+000	0	6.8045672E-005
6.023279847839149E+001	9.3290629E-003	-1.6215762E+000	0	1.2530274E-004
6.023679847829044E+001	9.1381911E-003	-1.5690869E+000	0	-2.7382786E-005
6.024079847818939E+001	9.2527140E-003	-1.5190789E+000	0	8.7131360E-005
6.024519847807824E+001	9.1954526E-003	-1.4686257E+000	0	6.8045672E-005
6.024979847796203E+001	9.2908889E-003	-1.4179815E+000	0	-2.7382786E-005
6.025479847783572E+001	9.3672378E-003	-1.3672737E+000	0	8.7131360E-005
6.026019847769930E+001	9.1572776E-003	-1.3159295E+000	0	8.7131360E-005
6.026579847755784E+001	9.1763651E-003	-1.2659216E+000	0	2.9874289E-005
6.027199847740121E+001	9.2336265E-003	-1.2158502E+000	0	1.0788597E-005
6.027859847723448E+001	9.2145400E-003	-1.1646333E+000	0	1.0621706E-004
6.028579847705259E+001	9.2527140E-003	-1.1138619E+000	0	-4.6468478E-005
6.029379847685050E+001	9.2336265E-003	-1.0627724E+000	0	1.0621706E-004
6.030239847663324E+001	9.2908889E-003	-1.0125735E+000	0	-4.6468478E-005
6.031139847640588E+001	9.2145400E-003	-9.6180207E-001	0	1.4438844E-004
6.032179847614316E+001	9.2527140E-003	-9.1128510E-001	0	8.7131360E-005
6.033339847585012E+001	9.1954526E-003	-8.6095911E-001	0	2.9874289E-005
6.034619847552676E+001	9.2145400E-003	-8.1025118E-001	0	1.2530274E-004
6.036019847517309E+001	9.2527140E-003	-7.6011604E-001	0	1.0621706E-004
6.037599847477395E+001	9.1763651E-003	-7.0972645E-001	0	-8.2970946E-006
6.039439847430913E+001	9.2145400E-003	-6.5946388E-001	0	-4.6468478E-005
6.041699847373820E+001	9.2527140E-003	-6.0894704E-001	0	1.0621706E-004
6.044259847309149E+001	9.1763651E-003	-5.5823922E-001	0	-8.2970946E-006
6.047279847232858E+001	9.2527140E-003	-5.0823128E-001	0	-8.2970946E-006
6.051059847137367E+001	9.2527140E-003	-4.5790517E-001	0	1.4438844E-004
6.057379846977710E+001	9.1763651E-003	-3.9582494E-001	0	6.8045672E-005
6.064079846808454E+001	9.3290629E-003	-3.4580833E-001	0	8.7131360E-005
6.073279846576042E+001	9.2336265E-003	-2.9575357E-001	0	-2.7382786E-005
6.086639846238540E+001	9.2145400E-003	-2.4574333E-001	0	1.2530274E-004
6.107059845722688E+001	9.2336265E-003	-1.9556764E-001	0	-1.4189695E-004
6.142939844816283E+001	9.1191037E-003	-1.4556378E-001	0	-2.7382786E-005
6.215059842994378E+001	9.2718014E-003	-9.5470816E-002	0	-8.2970946E-006
6.430639837548370E+001	9.1381911E-003	-4.5377854E-002	0	8.7131360E-005
7.430639812286245E+001	9.3290629E-003	-1.2972755E-002	0	4.8959981E-005
8.430639787024120E+001	9.1572776E-003	-7.1719862E-003	0	-2.7382786E-005
9.430639761761995E+001	9.1381911E-003	-4.7752005E-003	0	-8.2970946E-006
1.043063973649987E+002	9.2718014E-003	-3.5337091E-003	0	4.8959981E-005
1.143063971123775E+002	9.2336265E-003	-2.7976409E-003	0	1.2530274E-004
1.243063968597562E+002	9.1572776E-003	-2.2955996E-003	0	-6.5554173E-005
1.343063966071350E+002	9.2718014E-003	-1.9390533E-003	0	6.8045672E-005
1.443063963545137E+002	9.2908889E-003	-1.6710393E-003	0	-8.2970946E-006
1.543063961018925E+002	9.2718014E-003	-1.4846830E-003	0	-8.4639862E-005
1.643063958492712E+002	9.2718014E-003	-1.3469527E-003	0	1.0788597E-005
1.743063955966500E+002	9.2145400E-003	-1.2558749E-003	0	-8.2970946E-006
1.843063953440287E+002	9.2908889E-003	-1.1167444E-003	0	-2.7382786E-005
1.943063950914075E+002	9.1572776E-003	-1.0359774E-003	0	1.2530274E-004
2.043063948387862E+002	9.2145400E-003	-9.5177337E-004	0	2.9874289E-005
2.143063945861650E+002	9.2145400E-003	-8.8424474E-004	0	1.2530274E-004
2.243063943335437E+002	9.1763651E-003	-8.3892868E-004	0	1.4438844E-004
2.343063940809225E+002	9.1954526E-003	-7.7267300E-004	0	-2.7382786E-005
2.443063938283012E+002	9.2145400E-003	-7.3944964E-004	0	1.6347412E-004
2.543063935756800E+002	9.1954526E-003	-7.0317130E-004	0	-4.6468478E-005
2.643063933230587E+002	9.2527140E-003	-6.7669444E-004	0	-6.5554173E-005
2.743063930704375E+002	9.3481503E-003	-6.4391672E-004	0	1.0788597E-005
2.843063928178162E+002	9.2145400E-003	-6.1654882E-004	0	6.8045672E-005
2.943063925651950E+002	9.2145400E-003	-5.7059631E-004	0	-8.2970946E-006
3.043063923125737E+002	9.3290629E-003	-5.7766103E-004	0	1.0788597E-005
3.143063920599525E+002	9.2527140E-003	-4.9492088E-004	0	-2.7382786E-005
3.243063918073312E+002	9.1954526E-003	-5.3075375E-004	0	1.6347412E-004
3.343063915547100E+002	9.2908889E-003	-5.2903529E-004	0	-2.7382786E-005
3.443063913020887E+002	9.2336265E-003	-4.8791981E-004	0	-2.7382786E-005
3.543063910494675E+002	9.2527140E-003	-4.6195212E-004	0	-8.4639862E-005
3.643063907968462E+002	9.2527140E-003	-4.3044728E-004	0	4.8959981E-005
3.743063905442250E+002	9.2145400E-003	-4.6093381E-004	0	2.2073121E-004
3.843063902916037E+002	9.2336265E-003	-4.1727250E-004	0	-8.4639862E-005
3.943063900389825E+002	9.1954526E-003	-4.1148069E-004	0	1.0788597E-005
4.043063897863613E+002	9.2718014E-003	-3.8837714E-004	0	-4.6468478E-005
4.143063895337400E+002	9.3290629E-003	-3.9054107E-004	0	8.7131360E-005
4.243063892811188E+002	9.2908889E-003	-3.8920454E-004	0	1.0788597E-005
4.343063890284975E+002	9.1954526E-003	-3.6826494E-004	0	-6.5554173E-005
4.443063887758763E+002	9.3290629E-003	-3.4433397E-004	0	1.4438844E-004
4.543063885232550E+002	9.2336265E-003	-3.6190031E-004	0	-2.7382786E-005
4.643063882706338E+002	9.3099754E-003	-3.5235341E-004	0	8.7131360E-005
4.743063880180125E+002	9.2527140E-003	-3.6291865E-004	0	2.9874289E-005
4.843063877653913E+002	9.2908889E-003	-3.4210636E-004	0	-6.5554173E-005
4.943063875127700E+002	9.2336265E-003	-3.0468238E-004	0	6.8045672E-005
5.043063872601488E+002	9.1954526E-003	-3.1817539E-004	0	4.8959981E-005
5.143063870075275E+002	9.2718014E-003	-3.2275790E-004	0	-8.2970946E-006
5.243063867549063E+002	9.1763651E-003	-2.9774493E-004	0	6.8045672E-005
5.343063865022850E+002	9.2718014E-003	-2.6827678E-004	0	8.7131360E-005
5.443063862496638E+002	9.2527140E-003	-3.1174711E-004	0	6.8045672E-005
5.543063859970425E+002	9.2336265E-003	-2.9698119E-004	0	4.8959981E-005
5.643063857444213E+002	9.3672378E-003	-3.0385499E-004	0	-4.6468478E-005
5.743063854918000E+002	9.1763651E-003	-2.6865865E-004	0	-6.5554173E-005
5.843063852391788E+002	9.1572776E-003	-3.0748281E-004	0	-2.7382786E-005
5.943063849865575E+002	9.1763651E-003	-2.4988301E-004	0	-6.5554173E-005
6.043063847339363E+002	9.1572776E-003	-2.7305022E-004	0	6.8045672E-005
6.143063844813150E+002	9.2908889E-003	-2.4714621E-004	0	1.0788597E-005
6.243063842286938E+002	9.2336265E-003	-2.3969960E-004	0	1.4438844E-004
6.343063839760725E+002	9.3290629E-003	-2.5822065E-004	0	-4.6468478E-005
6.443063837234513E+002	9.2336265E-003	-2.6426706E-004	0	1.0788597E-005
6.543063834708300E+002	9.2527140E-003	-2.2149677E-004	0	6.8045672E-005
6.643063832182088E+002	9.2527140E-003	-2.3925406E-004	0	6.8045672E-005
6.743063829655875E+002	9.2718014E-003	-2.4784630E-004	0	-8.2970946E-006
6.843063827129663E+002	9.2718014E-003	-2.4173627E-004	0	-2.7382786E-005
6.943063824603450E+002	9.2145400E-003	-2.3645363E-004	0	6.8045672E-005
7.043063822077238E+002	9.2908889E-003	-2.0736732E-004	0	-2.7382786E-005
7.143063819551026E+002	9.2718014E-003	-2.0125728E-004	0	4.8959981E-005
7.243063817024813E+002	9.1572776E-003	-2.1742343E-004	0	-4.6468478E-005
7.343063814498601E+002	9.2908889E-003	-2.2474273E-004	0	-1.4189695E-004
7.443063811972388E+002	9.1954526E-003	-2.1341373E-004	0	1.2530274E-004
7.543063809446176E+002	9.2527140E-003	-2.1347735E-004	0	-8.2970946E-006
7.643063806919963E+002	9.2718014E-003	-1.9120118E-004	0	-8.4639862E-005
7.743063804393751E+002	9.2718014E-003	-2.0641263E-004	0	1.0788597E-005
7.843063801867538E+002	9.2527140E-003	-1.7077077E-004	0	4.8959981E-005
7.943063799341326E+002	9.3481503E-003	-1.9069202E-004	0	6.8045672E-005
8.043063796815113E+002	9.2145400E-003	-1.9578372E-004	0	1.6347412E-004
8.143063794288901E+002	9.1954526E-003	-2.0571251E-004	0	1.0788597E-005
8.243063791762688E+002	9.2527140E-003	-1.7038888E-004	0	4.8959981E-005
8.343063789236476E+002	9.1763651E-003	-2.1099515E-004	0	1.4438844E-004
8.443063786710263E+002	9.2336265E-003	-1.8420011E-004	0	-4.6468478E-005
8.543063784184051E+002	9.2908889E-003	-1.7828100E-004	0	-8.4639862E-005
8.643063781657838E+002	9.2908889E-003	-1.7134358E-004	0	-4.6468478E-005
8.743063779131626E+002	9.1763651E-003	-1.9482902E-004	0	-2.7382786E-005
8.843063776605413E+002	9.1381911E-003	-1.6357873E-004	0	4.8959981E-005
8.943063774079201E+002	9.2145400E-003	-1.9323785E-004	0	1.0621706E-004
9.043063771552988E+002	9.1191037E-003	-1.8986462E-004	0	1.2530274E-004
9.143063769026776E+002	9.1763651E-003	-1.7828100E-004	0	-8.2970946E-006
9.243063766500563E+002	9.2527140E-003	-1.7503506E-004	0	2.9874289E-005
9.343063763974351E+002	9.2336265E-003	-1.7777184E-004	0	2.3981689E-004
9.443063761448138E+002	9.2145400E-003	-1.2399079E-004	0	4.8959981E-005
9.543063758921926E+002	9.2145400E-003	-1.6739752E-004	0	1.8255982E-004
9.643063756395713E+002	9.1763651E-003	-1.6612458E-004	0	1.0621706E-004
9.743063753869501E+002	9.2718014E-003	-1.3939317E-004	0	-2.7382786E-005
9.843063751343288E+002	9.2527140E-003	-1.5816881E-004	0	4.8959981E-005
9.943063748817076E+002	9.1763651E-003	-1.6561542E-004	0	1.0788597E-005
1.004306374629086E+003	9.2527140E-003	-1.3601994E-004	0	-2.7382786E-005
1.014306374376465E+003	9.2336265E-003	-1.6179665E-004	0	8.7131360E-005
1.024306374123844E+003	9.1763651E-003	-1.5664130E-004	0	6.8045672E-005
1.034306373871223E+003	9.2336265E-003	-1.3913859E-004	0	1.0788597E-005
1.044306373618601E+003	9.1000162E-003	-1.3003718E-004	0	-2.7382786E-005
1.054306373365980E+003	9.1954526E-003	-1.2545467E-004	0	2.9874289E-005
1.064306373113359E+003	9.2718014E-003	-1.5791421E-004	0	8.7131360E-005
1.074306372860738E+003	9.2336265E-003	-1.4563050E-004	0	2.9874289E-005
1.084306372608116E+003	9.1572776E-003	-1.2940072E-004	0	1.0788597E-005
1.094306372355495E+003	9.0809288E-003	-1.4773083E-004	0	1.4438844E-004
1.104306372102874E+003	9.1572776E-003	-1.5345900E-004	0	2.9874289E-005
1.114306371850253E+003	9.3099754E-003	-1.1628960E-004	0	4.8959981E-005
1.124306371597631E+003	9.2145400E-003	-1.6033277E-004	0	-2.7382786E-005
1.134306371345010E+003	9.2527140E-003	-1.2577290E-004	0	-2.7382786E-005
1.144306371092389E+003	9.2718014E-003	-1.4480311E-004	0	4.8959981E-005
1.154306370839768E+003	9.2336265E-003	-1.3277399E-004	0	2.9874289E-005
1.164306370587146E+003	9.1572776E-003	-1.5403180E-004	0	8.7131360E-005
1.174306370334525E+003	9.1381911E-003	-1.1998107E-004	0	4.8959981E-005
1.184306370081904E+003	9.3099754E-003	-1.4384842E-004	0	8.7131360E-005
1.194306369829283E+003	9.1763651E-003	-1.4442124E-004	0	-2.7382786E-005
1.204306369576661E+003	9.1763651E-003	-1.4804908E-004	0	1.6347412E-004
1.214306369324040E+003	9.1763651E-003	-1.2520008E-004	0	-8.2970946E-006
1.224306369071419E+003	9.2336265E-003	-1.3780202E-004	0	4.8959981E-005
1.234306368818798E+003	9.1191037E-003	-1.4130256E-004	0	1.4438844E-004
1.244306368566176E+003	9.2336265E-003	-1.2545467E-004	0	-2.7382786E-005
1.254306368313555E+003	9.2336265E-003	-1.0725184E-004	0	1.0788597E-005
1.264306368060934E+003	9.2908889E-003	-1.3672003E-004	0	1.0788597E-005
1.274306367808313E+003	9.2145400E-003	-1.2793686E-004	0	1.2530274E-004
1.284306367555691E+003	9.1954526E-003	-1.3506525E-004	0	2.9874289E-005
1.294306367303070E+003	9.1763651E-003	-1.2660028E-004	0	4.8959981E-005
1.304306367050449E+003	9.1954526E-003	-1.2481819E-004	0	4.8959981E-005
1.314306366797828E+003	9.1381911E-003	-9.4268020E-005	0	-2.7382786E-005
1.324306366545206E+003	9.2718014E-003	-1.2042661E-004	0	1.0788597E-005
1.334306366292585E+003	9.3672378E-003	-1.1527126E-004	0	-2.7382786E-005
1.344306366039964E+003	9.2908889E-003	-1.4493040E-004	0	2.9874289E-005
1.354306365787343E+003	9.2527140E-003	-1.0737913E-004	0	6.8045672E-005
1.364306365534721E+003	9.1763651E-003	-1.2233600E-004	0	-2.7382786E-005
1.374306365282100E+003	9.1954526E-003	-9.0767469E-005	0	2.9874289E-005
1.384306365029479E+003	9.2336265E-003	-9.9423363E-005	0	-6.5554173E-005
1.394306364776858E+003	9.3099754E-003	-1.3131011E-004	0	-2.7382786E-005
1.404306364524236E+003	9.2908889E-003	-1.2863697E-004	0	4.8959981E-005
1.414306364271615E+003	9.2718014E-003	-1.1934462E-004	0	2.9874289E-005
1.424306364018994E+003	9.2908889E-003	-1.1520761E-004	0	2.9874289E-005
1.434306363766373E+003	9.2145400E-003	-1.1858086E-004	0	-2.7382786E-005
1.444306363513751E+003	9.2145400E-003	-1.1024320E-004	0	-4.6468478E-005
1.454306363261130E+003	9.1381911E-003	-1.1686241E-004	0	-8.2970946E-006
1.464306363008509E+003	9.2527140E-003	-1.1915368E-004	0	-4.6468478E-005
1.474306362755888E+003	9.2908889E-003	-1.1100696E-004	0	8.7131360E-005
1.484306362503266E+003	9.2718014E-003	-1.2399079E-004	0	-4.6468478E-005
1.494306362250645E+003	9.2527140E-003	-1.2920979E-004	0	4.8959981E-005
1.504306361998024E+003	9.2527140E-003	-1.1565314E-004	0	-6.5554173E-005
1.514306361745403E+003	9.2336265E-003	-9.8595949E-005	0	6.8045672E-005
1.524306361492781E+003	9.2145400E-003	-1.3150104E-004	0	-2.7382786E-005
1.534306361240160E+003	9.2908889E-003	-1.1705336E-004	0	6.8045672E-005
1.544306360987539E+003	9.1954526E-003	-1.1291635E-004	0	-2.7382786E-005
1.554306360734918E+003	9.0809288E-003	-1.1164343E-004	0	6.8045672E-005
1.564306360482296E+003	9.2527140E-003	-9.9486999E-005	0	-2.7382786E-005
1.574306360229675E+003	9.2145400E-003	-1.3105554E-004	0	1.0788597E-005
1.584306359977054E+003	9.1954526E-003	-1.1393469E-004	0	4.8959981E-005
1.594306359724433E+003	9.2336265E-003	-1.2520008E-004	0	4.8959981E-005
1.604306359471811E+003	9.2336265E-003	-1.1336188E-004	0	-8.2970946E-006
1.614306359219190E+003	9.1763651E-003	-1.1953556E-004	0	-8.2970946E-006
1.624306358966569E+003	9.1954526E-003	-1.2857333E-004	0	-8.2970946E-006
1.634306358713948E+003	9.2336265E-003	-1.4467581E-004	0	1.0621706E-004
1.644306358461326E+003	9.1954526E-003	-8.2175233E-005	0	1.0788597E-005
1.654306358208705E+003	9.2145400E-003	-9.8723249E-005	0	1.0621706E-004
1.664306357956084E+003	9.1572776E-003	-9.0958412E-005	0	6.8045672E-005
1.674306357703463E+003	9.1572776E-003	-1.2125401E-004	0	-8.4639862E-005
1.684306357450841E+003	9.2145400E-003	-1.1768981E-004	0	4.8959981E-005
1.694306357198220E+003	9.1381911E-003	-1.1654418E-004	0	-8.2970946E-006
1.704306356945599E+003	9.1572776E-003	-1.1737159E-004	0	1.0788597E-005
1.714306356692978E+003	9.1191037E-003	-1.1438021E-004	0	2.9874289E-005
1.724306356440356E+003	9.1763651E-003	-7.9183861E-005	0	-8.4639862E-005
1.734306356187735E+003	9.1191037E-003	-1.0470598E-004	0	-8.2970946E-006
1.744306355935114E+003	9.3290629E-003	-1.1431657E-004	0	-1.4189695E-004
1.754306355682493E+003	9.1381911E-003	-1.2259057E-004	0	4.8959981E-005
1.764306355429871E+003	9.2718014E-003	-8.2875347E-005	0	1.0621706E-004
1.774306355177250E+003	9.2908889E-003	-8.8030683E-005	0	6.8045672E-005
1.784306354924629E+003	9.3099754E-003	-8.9430898E-005	0	1.0788597E-005
1.794306354672008E+003	9.1954526E-003	-8.6948698E-005	0	-2.3732540E-004
1.804306354419386E+003	9.2145400E-003	-8.2493469E-005	0	4.8959981E-005
1.814306354166765E+003	9.2908889E-003	-9.6113748E-005	0	2.9874289E-005
1.824306353914144E+003	9.1954526E-003	-7.8992925E-005	0	-8.2970946E-006
1.834306353661523E+003	9.1381911E-003	-9.5413641E-005	0	4.8959981E-005
1.844306353408901E+003	9.2718014E-003	-9.9232413E-005	0	-8.4639862E-005
1.854306353156280E+003	9.3863243E-003	-8.1666069E-005	0	1.2530274E-004
1.860052753011114E+003	9.1572776E-003	-9.1276648E-005	0	-1.8006832E-004