time/s	Ewe/V	I/mA	error	
1.860205753007249E+003	-8.3026309E-003	-1.9472088E-001	0
1.860205953007244E+003	-1.5599058E-002	-1.9597867E-001	0
1.860206153007239E+003	-1.8349474E-002	-1.9597867E-001	0
1.860206353007234E+003	-1.9762143E-002	-1.9597611E-001	0
1.860206553007229E+003	-2.0983912E-002	-1.9598503E-001	0
1.860206753007224E+003	-2.2091139E-002	-1.9598313E-001	0
1.860207153007213E+003	-2.3828341E-002	-1.9597550E-001	0
1.860207553007203E+003	-2.5584633E-002	-1.9598122E-001	0
1.860207953007193E+003	-2.7130933E-002	-1.9597867E-001	0
1.860208353007183E+003	-2.8600873E-002	-1.9597931E-001	0
1.860208753007173E+003	-2.9899001E-002	-1.9598375E-001	0
1.860209153007163E+003	-3.1197131E-002	-1.9598185E-001	0
1.860209553007153E+003	-3.2590710E-002	-1.9597611E-001	0
1.860209953007143E+003	-3.3793386E-002	-1.9598375E-001	0
1.860210353007133E+003	-3.4919705E-002	-1.9597802E-001	0
1.860210753007123E+003	-3.6198743E-002	-1.9597550E-001	0
1.860211153007112E+003	-3.7554141E-002	-1.9598122E-001	0
1.860211553007102E+003	-3.8680460E-002	-1.9597676E-001	0
1.860211953007092E+003	-3.9921317E-002	-1.9597931E-001	0
1.860212353007082E+003	-4.0990364E-002	-1.9597676E-001	0
1.860212753007072E+003	-4.2059410E-002	-1.9597802E-001	0
1.860213153007062E+003	-4.3147549E-002	-1.9598439E-001	0
1.860213553007052E+003	-4.4407498E-002	-1.9598694E-001	0
1.860213953007042E+003	-4.5438364E-002	-1.9597359E-001	0
1.860214353007032E+003	-4.6469230E-002	-1.9597802E-001	0
1.860214953007016E+003	-4.8091892E-002	-1.9598439E-001	0
1.860215553007001E+003	-4.9580920E-002	-1.9597994E-001	0
1.860216153006986E+003	-5.1165402E-002	-1.9598122E-001	0
1.860216553006976E+003	-5.2215356E-002	-1.9598249E-001	0
1.860217153006961E+003	-5.3532578E-002	-1.9597931E-001	0
1.860217753006946E+003	-5.5002518E-002	-1.9598566E-001	0
1.860218153006936E+003	-5.6033384E-002	-1.9597676E-001	0
1.860218753006920E+003	-5.7407871E-002	-1.9597931E-001	0
1.860219353006905E+003	-5.8858722E-002	-1.9597994E-001	0
1.860219953006890E+003	-6.0290482E-002	-1.9597676E-001	0
1.860220553006875E+003	-6.1626792E-002	-1.9597931E-001	0
1.860221153006860E+003	-6.2963098E-002	-1.9597994E-001	0
1.860221753006845E+003	-6.4471215E-002	-1.9598058E-001	0
1.860222353006830E+003	-6.5692984E-002	-1.9597867E-001	0
1.860222953006814E+003	-6.6857487E-002	-1.9597676E-001	0
1.860223553006799E+003	-6.8193793E-002	-1.9597550E-001	0
1.860224153006784E+003	-6.9549188E-002	-1.9597802E-001	0
1.860224753006769E+003	-7.0866413E-002	-1.9598122E-001	0
1.860225353006754E+003	-7.2011821E-002	-1.9597740E-001	0
1.860225953006739E+003	-7.3290855E-002	-1.9598122E-001	0
1.860226553006723E+003	-7.4569896E-002	-1.9598185E-001	0
1.860227153006708E+003	-7.5868025E-002	-1.9598439E-001	0
1.860227753006693E+003	-7.7070698E-002	-1.9598185E-001	0
1.860228353006678E+003	-7.8273378E-002	-1.9597802E-001	0
1.860228953006663E+003	-7.9571508E-002	-1.9597802E-001	0
1.860229553006648E+003	-8.0583282E-002	-1.9598439E-001	0
1.860230153006632E+003	-8.1652328E-002	-1.9597931E-001	0
1.860230753006617E+003	-8.2931370E-002	-1.9597611E-001	0
1.860231353006602E+003	-8.4095865E-002	-1.9597994E-001	0
1.860231953006587E+003	-8.5126735E-002	-1.9597994E-001	0
1.860232553006572E+003	-8.6405776E-002	-1.9598757E-001	0
1.860233353006552E+003	-8.7684810E-002	-1.9597676E-001	0
1.860233953006536E+003	-8.8868402E-002	-1.9598249E-001	0
1.860234753006516E+003	-9.0261981E-002	-1.9598185E-001	0
1.860235553006496E+003	-9.1693737E-002	-1.9598122E-001	0
1.860236153006481E+003	-9.2743695E-002	-1.9598249E-001	0
1.860236953006461E+003	-9.4194546E-002	-1.9597994E-001	0
1.860237553006446E+003	-9.5282681E-002	-1.9598313E-001	0
1.860238153006430E+003	-9.6332639E-002	-1.9598122E-001	0
1.860238953006410E+003	-9.7630769E-002	-1.9598566E-001	0
1.860239753006390E+003	-9.8890714E-002	-1.9597867E-001	0
1.860240353006375E+003	-9.9921584E-002	-1.9597802E-001	0
1.860241153006355E+003	-1.0112426E-001	-1.9597867E-001	0
1.860241753006339E+003	-1.0215513E-001	-1.9597486E-001	0
1.860242553006319E+003	-1.0343417E-001	-1.9598503E-001	0
1.860243353006299E+003	-1.0475139E-001	-1.9597994E-001	0
1.860244153006279E+003	-1.0601133E-001	-1.9597611E-001	0
1.860244953006259E+003	-1.0721401E-001	-1.9597931E-001	0
1.860245753006238E+003	-1.0841669E-001	-1.9598439E-001	0
1.860246553006218E+003	-1.0961936E-001	-1.9598439E-001	0
1.860247353006198E+003	-1.1076477E-001	-1.9598058E-001	0
1.860248153006178E+003	-1.1194836E-001	-1.9597802E-001	0
1.860248953006158E+003	-1.1313195E-001	-1.9597802E-001	0
1.860249753006137E+003	-1.1427736E-001	-1.9597676E-001	0
1.860250553006117E+003	-1.1551821E-001	-1.9597802E-001	0
1.860251353006097E+003	-1.1658727E-001	-1.9597931E-001	0
1.860252153006077E+003	-1.1767540E-001	-1.9598566E-001	0
1.860252953006056E+003	-1.1874445E-001	-1.9598503E-001	0
1.860253753006036E+003	-1.1992803E-001	-1.9598375E-001	0
1.860254753006011E+003	-1.2128343E-001	-1.9598947E-001	0
1.860255753005986E+003	-1.2244793E-001	-1.9597740E-001	0
1.860256553005966E+003	-1.2365061E-001	-1.9598375E-001	0
1.860257353005945E+003	-1.2470057E-001	-1.9597867E-001	0
1.860258353005920E+003	-1.2588415E-001	-1.9598058E-001	0
1.860259153005900E+003	-1.2695320E-001	-1.9598249E-001	0
1.860260153005875E+003	-1.2815587E-001	-1.9597740E-001	0
1.860260953005854E+003	-1.2924401E-001	-1.9598439E-001	0
1.860261953005829E+003	-1.3038942E-001	-1.9598122E-001	0
1.860262953005804E+003	-1.3151574E-001	-1.9598630E-001	0
1.860263953005779E+003	-1.3271841E-001	-1.9597802E-001	0
1.860264953005753E+003	-1.3386382E-001	-1.9598058E-001	0
1.860265953005728E+003	-1.3495196E-001	-1.9598058E-001	0
1.860266953005703E+003	-1.3609737E-001	-1.9598375E-001	0
1.860267953005678E+003	-1.3735731E-001	-1.9597931E-001	0
1.860269153005647E+003	-1.3857909E-001	-1.9598313E-001	0
1.860270153005622E+003	-1.3964812E-001	-1.9598058E-001	0
1.860271153005597E+003	-1.4077444E-001	-1.9598122E-001	0
1.860272353005566E+003	-1.4195804E-001	-1.9598122E-001	0
1.860273353005541E+003	-1.4304617E-001	-1.9597994E-001	0
1.860274553005511E+003	-1.4411522E-001	-1.9598122E-001	0
1.860275553005486E+003	-1.4531790E-001	-1.9598122E-001	0
1.860276753005455E+003	-1.4646330E-001	-1.9598313E-001	0
1.860277953005425E+003	-1.4758962E-001	-1.9598566E-001	0
1.860278953005400E+003	-1.4865868E-001	-1.9598249E-001	0
1.860280353005364E+003	-1.4978498E-001	-1.9598185E-001	0
1.860281353005339E+003	-1.5081586E-001	-1.9598058E-001	0
1.860282553005309E+003	-1.5182763E-001	-1.9597994E-001	0
1.860283553005283E+003	-1.5289667E-001	-1.9598503E-001	0
1.860284953005248E+003	-1.5398481E-001	-1.9597676E-001	0
1.860286353005213E+003	-1.5526386E-001	-1.9598630E-001	0
1.860287753005177E+003	-1.5633290E-001	-1.9598694E-001	0
1.860288953005147E+003	-1.5742104E-001	-1.9597994E-001	0
1.860290153005117E+003	-1.5845190E-001	-1.9598185E-001	0
1.860291553005081E+003	-1.5950187E-001	-1.9598185E-001	0
1.860292753005051E+003	-1.6057090E-001	-1.9598503E-001	0
1.860294153005016E+003	-1.6158269E-001	-1.9598313E-001	0
1.860295553004980E+003	-1.6267082E-001	-1.9598122E-001	0
1.860296953004945E+003	-1.6368259E-001	-1.9598313E-001	0
1.860298353004910E+003	-1.6478983E-001	-1.9597931E-001	0
1.860299953004869E+003	-1.6603069E-001	-1.9598503E-001	0
1.860301753004824E+003	-1.6719519E-001	-1.9597802E-001	0
1.860303353004783E+003	-1.6828333E-001	-1.9597740E-001	0
1.860304753004748E+003	-1.6929510E-001	-1.9598566E-001	0
1.860306353004707E+003	-1.7030688E-001	-1.9598566E-001	0
1.860307953004667E+003	-1.7133774E-001	-1.9597867E-001	0
1.860309553004627E+003	-1.7240679E-001	-1.9598122E-001	0
1.860311153004586E+003	-1.7343765E-001	-1.9598375E-001	0
1.860312953004541E+003	-1.7448761E-001	-1.9597867E-001	0
1.860314553004500E+003	-1.7557575E-001	-1.9597994E-001	0
1.860316553004450E+003	-1.7670207E-001	-1.9598694E-001	0
1.860318553004399E+003	-1.7784747E-001	-1.9597931E-001	0
1.860320753004344E+003	-1.7918378E-001	-1.9598122E-001	0
1.860323153004283E+003	-1.8023375E-001	-1.9598122E-001	0
1.860325153004233E+003	-1.8130279E-001	-1.9598058E-001	0
1.860327353004177E+003	-1.8252456E-001	-1.9598503E-001	0
1.860329753004116E+003	-1.8357451E-001	-1.9598566E-001	0
1.860332153004056E+003	-1.8458629E-001	-1.9598313E-001	0
1.860334953003985E+003	-1.8571261E-001	-1.9597994E-001	0
1.860338153003904E+003	-1.8676256E-001	-1.9598886E-001	0
1.860341953003808E+003	-1.8777435E-001	-1.9598185E-001	0
1.860346953003682E+003	-1.8878612E-001	-1.9598757E-001	0
1.860366153003197E+003	-1.8771707E-001	-1.9597931E-001	0
1.860370153003096E+003	-1.8666711E-001	-1.9598185E-001	0
1.860373553003010E+003	-1.8552171E-001	-1.9598122E-001	0
1.860376553002934E+003	-1.8437630E-001	-1.9598439E-001	0
1.860378953002873E+003	-1.8336453E-001	-1.9598503E-001	0
1.860381353002813E+003	-1.8231456E-001	-1.9597676E-001	0
1.860383553002757E+003	-1.8128370E-001	-1.9598058E-001	0
1.860385353002712E+003	-1.8027192E-001	-1.9598503E-001	0
1.860387553002656E+003	-1.7924106E-001	-1.9597994E-001	0
1.860389753002601E+003	-1.7805746E-001	-1.9597867E-001	0
1.860391753002550E+003	-1.7700751E-001	-1.9597994E-001	0
1.860393753002500E+003	-1.7591937E-001	-1.9598375E-001	0
1.860395753002449E+003	-1.7475487E-001	-1.9597931E-001	0
1.860397553002404E+003	-1.7372401E-001	-1.9598503E-001	0
1.860399553002353E+003	-1.7259769E-001	-1.9598058E-001	0
1.860401153002313E+003	-1.7158592E-001	-1.9598313E-001	0
1.860403153002262E+003	-1.7042142E-001	-1.9598249E-001	0
1.860404953002217E+003	-1.6925691E-001	-1.9598249E-001	0
1.860406953002166E+003	-1.6822605E-001	-1.9598694E-001	0
1.860408753002121E+003	-1.6717610E-001	-1.9598821E-001	0
1.860410553002075E+003	-1.6612613E-001	-1.9598694E-001	0
1.860412553002025E+003	-1.6496164E-001	-1.9598375E-001	0
1.860414553001974E+003	-1.6394986E-001	-1.9598503E-001	0
1.860416153001934E+003	-1.6288081E-001	-1.9598439E-001	0
1.860418153001883E+003	-1.6169722E-001	-1.9597994E-001	0
1.860420153001833E+003	-1.6066636E-001	-1.9598439E-001	0
1.860421953001787E+003	-1.5959731E-001	-1.9598503E-001	0
1.860423953001737E+003	-1.5856645E-001	-1.9598185E-001	0
1.860425953001686E+003	-1.5744013E-001	-1.9598185E-001	0
1.860428153001631E+003	-1.5633290E-001	-1.9598249E-001	0
1.860429953001585E+003	-1.5530203E-001	-1.9598503E-001	0
1.860431953001535E+003	-1.5421391E-001	-1.9597931E-001	0
1.860434153001479E+003	-1.5316394E-001	-1.9598630E-001	0
1.860436153001428E+003	-1.5199944E-001	-1.9598375E-001	0
1.860438553001368E+003	-1.5083495E-001	-1.9597994E-001	0
1.860440953001307E+003	-1.4978498E-001	-1.9598630E-001	0
1.860443153001252E+003	-1.4871594E-001	-1.9598122E-001	0
1.860445553001191E+003	-1.4758962E-001	-1.9597802E-001	0
1.860447753001135E+003	-1.4646330E-001	-1.9598566E-001	0
1.860450353001070E+003	-1.4541335E-001	-1.9598185E-001	0
1.860452553001014E+003	-1.4440158E-001	-1.9598058E-001	0
1.860454953000954E+003	-1.4337070E-001	-1.9598630E-001	0
1.860457553000888E+003	-1.4224438E-001	-1.9598503E-001	0
1.860460353000817E+003	-1.4119443E-001	-1.9598058E-001	0
1.860463153000746E+003	-1.4010629E-001	-1.9598122E-001	0
1.860465953000676E+003	-1.3888453E-001	-1.9597931E-001	0
1.860469353000590E+003	-1.3770095E-001	-1.9598566E-001	0
1.860472753000504E+003	-1.3651735E-001	-1.9598503E-001	0
1.860475953000423E+003	-1.3544831E-001	-1.9598185E-001	0
1.860479353000337E+003	-1.3436016E-001	-1.9598439E-001	0
1.860482353000261E+003	-1.3327202E-001	-1.9598249E-001	0
1.860486353000160E+003	-1.3218389E-001	-1.9598630E-001	0
1.860490153000064E+003	-1.3101940E-001	-1.9598694E-001	0
1.860493952999968E+003	-1.2996943E-001	-1.9598630E-001	0
1.860498152999862E+003	-1.2886222E-001	-1.9598249E-001	0
1.860501952999766E+003	-1.2773590E-001	-1.9598122E-001	0
1.860506952999640E+003	-1.2655230E-001	-1.9597931E-001	0
1.860511752999519E+003	-1.2546417E-001	-1.9598313E-001	0
1.860516752999392E+003	-1.2437604E-001	-1.9598313E-001	0
1.860521752999266E+003	-1.2334517E-001	-1.9598058E-001	0
1.860527552999120E+003	-1.2227612E-001	-1.9598185E-001	0
1.860532752998988E+003	-1.2118798E-001	-1.9598249E-001	0
1.860538952998832E+003	-1.2015712E-001	-1.9598375E-001	0
1.860545952998655E+003	-1.1914534E-001	-1.9598439E-001	0
1.860552352998493E+003	-1.1805720E-001	-1.9597550E-001	0
1.860560152998296E+003	-1.1702634E-001	-1.9598185E-001	0
1.860568352998089E+003	-1.1597638E-001	-1.9598058E-001	0
1.860577152997867E+003	-1.1492642E-001	-1.9597740E-001	0
1.860586952997619E+003	-1.1389556E-001	-1.9598185E-001	0
1.860597352997356E+003	-1.1282651E-001	-1.9598375E-001	0
1.860609352997053E+003	-1.1175746E-001	-1.9598249E-001	0
1.860622352996725E+003	-1.1070751E-001	-1.9598947E-001	0
1.860637152996351E+003	-1.0969573E-001	-1.9598439E-001	0
1.860652952995952E+003	-1.0868395E-001	-1.9598185E-001	0
1.860671552995482E+003	-1.0763399E-001	-1.9598058E-001	0
1.860694752994896E+003	-1.0662222E-001	-1.9597931E-001	0
1.860719352994274E+003	-1.0559135E-001	-1.9597994E-001	0
1.860752152993446E+003	-1.0454139E-001	-1.9598058E-001	0
1.860792352992430E+003	-1.0349143E-001	-1.9598375E-001	0
1.860844152991122E+003	-1.0246057E-001	-1.9597867E-001	0
1.860920552989191E+003	-1.0142970E-001	-1.9598375E-001	0
1.861032352986367E+003	-1.0037974E-001	-1.9598630E-001	0
1.861285952979961E+003	-9.9367969E-002	-1.9597359E-001	0
1.862600352946756E+003	-1.0037974E-001	-1.9598503E-001	0
1.863396752926637E+003	-1.0139152E-001	-1.9598503E-001	0
1.864421552900749E+003	-1.0242239E-001	-1.9598058E-001	0
1.865616352870566E+003	-1.0347234E-001	-1.9598439E-001	0
1.866945352836992E+003	-1.0448413E-001	-1.9598058E-001	0
1.868473552798387E+003	-1.0549590E-001	-1.9598630E-001	0
1.870313352751909E+003	-1.0658403E-001	-1.9598122E-001	0
1.872551752695363E+003	-1.0759582E-001	-1.9598886E-001	0
1.875254352627089E+003	-1.0866486E-001	-1.9598249E-001	0
1.878468352545897E+003	-1.0973391E-001	-1.9598439E-001	0
1.882606352441362E+003	-1.1074568E-001	-1.9598313E-001	0
1.887524952317108E+003	-1.1175746E-001	-1.9597802E-001	0
1.894820552132805E+003	-1.1276924E-001	-1.9598439E-001	0
1.904820551880184E+003	-1.1309377E-001	-1.9598122E-001	0
1.914820551627563E+003	-1.1330376E-001	-1.9598058E-001	0
1.924820551374942E+003	-1.1339922E-001	-1.9599012E-001	0
1.934820551122320E+003	-1.1324649E-001	-1.9598566E-001	0
1.944820550869699E+003	-1.1303650E-001	-1.9597867E-001	0
1.954820550617078E+003	-1.1299832E-001	-1.9598886E-001	0
1.964820550364457E+003	-1.1248288E-001	-1.9598566E-001	0
1.968205550278944E+003	-1.1231107E-001	-1.9598886E-001	0