time/s	Ewe/V	I/mA	error		
6.005299848293362E+001	2.5706015E+000	-2.5031064E-002	0	0
6.014319848065497E+001	9.2365211E-003	-8.6288061E+000	0	0
6.014359848064487E+001	9.1983452E-003	-8.5381403E+000	0	0
6.014399848063476E+001	9.2365211E-003	-8.4481125E+000	0	0
6.014439848062466E+001	9.1601685E-003	-8.3589106E+000	0	0
6.014479848061455E+001	9.2365211E-003	-8.2716169E+000	0	0
6.014519848060445E+001	9.2365211E-003	-8.1868696E+000	0	0
6.014559848059434E+001	9.1792569E-003	-8.1039667E+000	0	0
6.014599848058424E+001	9.2365211E-003	-8.0213823E+000	0	0
6.014639848057413E+001	9.1983452E-003	-7.9405155E+000	0	0
6.014679848056403E+001	9.2556095E-003	-7.8617482E+000	0	0
6.014719848055393E+001	9.2365211E-003	-7.7840624E+000	0	0
6.014759848054382E+001	9.2937863E-003	-7.7067590E+000	0	0
6.014799848053372E+001	9.2174336E-003	-7.6320639E+000	0	0
6.014839848052361E+001	9.1983452E-003	-7.5587039E+000	0	0
6.014879848051351E+001	9.2746979E-003	-7.4845185E+000	0	0
6.014919848050340E+001	9.2365211E-003	-7.4144039E+000	0	0
6.014959848049330E+001	9.3128746E-003	-7.3442264E+000	0	0
6.014999848048319E+001	9.2746979E-003	-7.2750025E+000	0	0
6.015039848047309E+001	9.2556095E-003	-7.2073059E+000	0	0
6.015079848046298E+001	9.2556095E-003	-7.1408186E+000	0	0
6.015119848045288E+001	9.1601685E-003	-7.0754123E+000	0	0
6.015159848044277E+001	9.2937863E-003	-7.0100703E+000	0	0
6.015199848043267E+001	9.2746979E-003	-6.9459996E+000	0	0
6.015239848042256E+001	9.2365211E-003	-6.8837113E+000	0	0
6.015279848041246E+001	9.2746979E-003	-6.8219318E+000	0	0
6.015319848040235E+001	9.2174336E-003	-6.7616801E+000	0	0
6.015359848039225E+001	9.2365211E-003	-6.7015548E+000	0	0
6.015399848038214E+001	9.2365211E-003	-6.6424475E+000	0	0
6.015439848037204E+001	9.2937863E-003	-6.5842943E+000	0	0
6.015479848036193E+001	9.2937863E-003	-6.5276051E+000	0	0
6.015519848035183E+001	9.1983452E-003	-6.4716787E+000	0	0
6.015559848034172E+001	9.2365211E-003	-6.4158173E+000	0	0
6.015599848033162E+001	9.1983452E-003	-6.3607183E+000	0	0
6.015639848032151E+001	9.2174336E-003	-6.3068285E+000	0	0
6.015679848031141E+001	9.1410801E-003	-6.2540832E+000	0	0
6.015719848030130E+001	9.3319630E-003	-6.2013388E+000	0	0
6.015759848029120E+001	9.2174336E-003	-6.1501846E+000	0	0
6.015799848028109E+001	9.2556095E-003	-6.0989666E+000	0	0
6.015859848026594E+001	9.2937863E-003	-6.0240173E+000	0	0
6.015919848025078E+001	9.2556095E-003	-5.9513578E+000	0	0
6.015979848023562E+001	9.2556095E-003	-5.8793983E+000	0	0
6.016039848022047E+001	9.2937863E-003	-5.8089662E+000	0	0
6.016099848020531E+001	9.1792569E-003	-5.7403154E+000	0	0
6.016159848019015E+001	9.2174336E-003	-5.6730008E+000	0	0
6.016219848017499E+001	9.2174336E-003	-5.6072764E+000	0	0
6.016279848015984E+001	9.2365211E-003	-5.5430160E+000	0	0
6.016339848014468E+001	9.2937863E-003	-5.4791365E+000	0	0
6.016399848012952E+001	9.3701398E-003	-5.4169116E+000	0	0
6.016459848011436E+001	9.1983452E-003	-5.3560867E+000	0	0
6.016519848009921E+001	9.2365211E-003	-5.2962160E+000	0	0
6.016579848008405E+001	9.1410801E-003	-5.2375546E+000	0	0
6.016639848006889E+001	9.2174336E-003	-5.1794019E+000	0	0
6.016699848005374E+001	9.2365211E-003	-5.1234756E+000	0	0
6.016759848003858E+001	9.3701398E-003	-5.0683131E+000	0	0
6.016819848002342E+001	9.3128746E-003	-5.0140414E+000	0	0
6.016879848000826E+001	9.2937863E-003	-4.9612331E+000	0	0
6.016939847999311E+001	9.1792569E-003	-4.9087429E+000	0	0
6.016999847997795E+001	9.2937863E-003	-4.8573346E+000	0	0
6.017079847995774E+001	9.2365211E-003	-4.7908463E+000	0	0
6.017159847993753E+001	9.2174336E-003	-4.7249951E+000	0	0
6.017239847991732E+001	9.2937863E-003	-4.6614342E+000	0	0
6.017319847989711E+001	9.1983452E-003	-4.5989552E+000	0	0
6.017399847987690E+001	9.2174336E-003	-4.5383205E+000	0	0
6.017479847985669E+001	9.2174336E-003	-4.4797225E+000	0	0
6.017559847983648E+001	9.2556095E-003	-4.4202976E+000	0	0
6.017639847981627E+001	9.3701398E-003	-4.3636079E+000	0	0
6.017719847979606E+001	9.2365211E-003	-4.3087635E+000	0	0
6.017799847977585E+001	9.2174336E-003	-4.2540464E+000	0	0
6.017879847975564E+001	9.2556095E-003	-4.2008562E+000	0	0
6.017959847973543E+001	9.2174336E-003	-4.1493840E+000	0	0
6.018039847971522E+001	9.3319630E-003	-4.0979114E+000	0	0
6.018139847968996E+001	9.2174336E-003	-4.0361323E+000	0	0
6.018239847966470E+001	9.1410801E-003	-3.9768341E+000	0	0
6.018339847963944E+001	9.2556095E-003	-3.9170907E+000	0	0
6.018439847961417E+001	9.2556095E-003	-3.8607831E+000	0	0
6.018539847958891E+001	9.3510514E-003	-3.8044116E+000	0	0
6.018639847956365E+001	9.2365211E-003	-3.7504580E+000	0	0
6.018739847953839E+001	9.1983452E-003	-3.6982219E+000	0	0
6.018839847951313E+001	9.1792569E-003	-3.6466229E+000	0	0
6.018939847948786E+001	9.2556095E-003	-3.5961046E+000	0	0
6.019059847945755E+001	9.2365211E-003	-3.5366797E+000	0	0
6.019179847942723E+001	9.2937863E-003	-3.4798627E+000	0	0
6.019299847939692E+001	9.2746979E-003	-3.4240005E+000	0	0
6.019419847936661E+001	9.3128746E-003	-3.3700471E+000	0	0
6.019539847933629E+001	9.2365211E-003	-3.3183837E+000	0	0
6.019659847930598E+001	9.2365211E-003	-3.2667844E+000	0	0
6.019799847927061E+001	9.3319630E-003	-3.2099676E+000	0	0
6.019939847923524E+001	9.3319630E-003	-3.1532147E+000	0	0
6.020079847919988E+001	9.3128746E-003	-3.0988793E+000	0	0
6.020219847916451E+001	9.2937863E-003	-3.0468981E+000	0	0
6.020359847912914E+001	9.2746979E-003	-2.9952347E+000	0	0
6.020519847908872E+001	9.3128746E-003	-2.9389272E+000	0	0
6.020679847904830E+001	9.2365211E-003	-2.8842738E+000	0	0
6.020839847900788E+001	9.2937863E-003	-2.8319108E+000	0	0
6.020999847896746E+001	9.2174336E-003	-2.7808201E+000	0	0
6.021159847892704E+001	9.2365211E-003	-2.7306840E+000	0	0
6.021339847888157E+001	9.2556095E-003	-2.6771758E+000	0	0
6.021519847883610E+001	9.3701398E-003	-2.6253855E+000	0	0
6.021699847879063E+001	9.3510514E-003	-2.5742948E+000	0	0
6.021899847874010E+001	9.2365211E-003	-2.5198960E+000	0	0
6.022099847868958E+001	9.3319630E-003	-2.4691873E+000	0	0
6.022299847863906E+001	9.1983452E-003	-2.4184787E+000	0	0
6.022519847858348E+001	9.3510514E-003	-2.3654792E+000	0	0
6.022739847852790E+001	9.2365211E-003	-2.3145161E+000	0	0
6.022979847846727E+001	9.1983452E-003	-2.2615166E+000	0	0
6.023219847840664E+001	9.2746979E-003	-2.2102354E+000	0	0
6.023479847834096E+001	9.2174336E-003	-2.1567271E+000	0	0
6.023739847827528E+001	9.3128746E-003	-2.1062093E+000	0	0
6.024019847820455E+001	9.2937863E-003	-2.0539734E+000	0	0
6.024319847812876E+001	9.2556095E-003	-2.0019286E+000	0	0
6.024619847805297E+001	9.3892282E-003	-1.9499474E+000	0	0
6.024939847797214E+001	9.2556095E-003	-1.8982842E+000	0	0
6.025279847788624E+001	9.2556095E-003	-1.8464302E+000	0	0
6.025619847780035E+001	9.3319630E-003	-1.7964212E+000	0	0
6.025979847770941E+001	9.3128746E-003	-1.7464124E+000	0	0
6.026379847760836E+001	9.3128746E-003	-1.6946856E+000	0	0
6.026779847750731E+001	9.3128746E-003	-1.6444858E+000	0	0
6.027219847739616E+001	9.3319630E-003	-1.5929500E+000	0	0
6.027679847727995E+001	9.2746979E-003	-1.5419233E+000	0	0
6.028159847715870E+001	9.2937863E-003	-1.4917234E+000	0	0
6.028679847702733E+001	9.1983452E-003	-1.4398694E+000	0	0
6.029239847688586E+001	9.2746979E-003	-1.3888427E+000	0	0
6.029819847673934E+001	9.3319630E-003	-1.3387700E+000	0	0
6.030439847658272E+001	9.1792569E-003	-1.2879977E+000	0	0
6.031119847641094E+001	9.2746979E-003	-1.2368437E+000	0	0
6.031839847622905E+001	9.3128746E-003	-1.1858803E+000	0	0
6.032639847602695E+001	9.1792569E-003	-1.1344081E+000	0	0
6.033499847580970E+001	9.2365211E-003	-1.0841447E+000	0	0
6.034419847557729E+001	9.2937863E-003	-1.0338813E+000	0	0
6.035439847531961E+001	9.3701398E-003	-9.8368156E-001	0	0
6.036559847503668E+001	9.2937863E-003	-9.3310004E-001	0	0
6.037799847472343E+001	9.2556095E-003	-8.8270938E-001	0	0
6.039199847436976E+001	9.2937863E-003	-8.3187342E-001	0	0
6.040759847397567E+001	9.3510514E-003	-7.8167361E-001	0	0
6.042499847353611E+001	9.2556095E-003	-7.3166478E-001	0	0
6.044439847304602E+001	9.2556095E-003	-6.8165588E-001	0	0
6.046679847248015E+001	9.3319630E-003	-6.3151979E-001	0	0
6.049299847181828E+001	9.2556095E-003	-5.8151090E-001	0	0
6.052399847103516E+001	9.2556095E-003	-5.3086579E-001	0	0
6.056139847009035E+001	9.1792569E-003	-4.8002976E-001	0	0
6.060739846892830E+001	9.3319630E-003	-4.2982998E-001	0	0
6.067399846724584E+001	9.1792569E-003	-3.7473819E-001	0	0
6.075219846527034E+001	9.2937863E-003	-3.2458317E-001	0	0
6.086079846252687E+001	9.3510514E-003	-2.7451730E-001	0	0
6.102159845846472E+001	9.2746979E-003	-2.2450230E-001	0	0
6.128319845185615E+001	9.2365211E-003	-1.7446184E-001	0	0
6.176939843957371E+001	9.2556095E-003	-1.2441505E-001	0	0
6.287559841162874E+001	9.3319630E-003	-7.4406445E-002	0	0
6.835419827322767E+001	9.3892282E-003	-2.4400748E-002	0	0
7.835419802060642E+001	9.2556095E-003	-1.1162424E-002	0	0
8.835419776798517E+001	9.1792569E-003	-7.0491508E-003	0	0
9.835419751536392E+001	9.2556095E-003	-5.1051457E-003	0	0
1.083541972627427E+002	9.2365211E-003	-4.0130527E-003	0	0
1.183541970101214E+002	9.3510514E-003	-3.2491924E-003	0	0
1.283541967575002E+002	9.2746979E-003	-2.7856289E-003	0	0
1.383541965048789E+002	9.3701398E-003	-2.4670567E-003	0	0
1.483541962522577E+002	9.3128746E-003	-2.1264523E-003	0	0
1.583541959996364E+002	9.3128746E-003	-1.9484130E-003	0	0
1.683541957470152E+002	9.2937863E-003	-1.7763597E-003	0	0
1.783541954943939E+002	9.2365211E-003	-1.6512995E-003	0	0
1.883541952417727E+002	9.1983452E-003	-1.5124852E-003	0	0
1.983541949891514E+002	9.3128746E-003	-1.4071647E-003	0	0
2.083541947365302E+002	9.3510514E-003	-1.3165534E-003	0	0
2.183541944839089E+002	9.3510514E-003	-1.2359393E-003	0	0
2.283541942312877E+002	9.2365211E-003	-1.2352389E-003	0	0
2.383541939786664E+002	9.2556095E-003	-1.1336751E-003	0	0
2.483541937260452E+002	9.2365211E-003	-1.0701899E-003	0	0
2.583541934734239E+002	9.2365211E-003	-1.0284819E-003	0	0
2.683541932208027E+002	9.2746979E-003	-1.0119898E-003	0	0
2.783541929681815E+002	9.2556095E-003	-9.5016015E-004	0	0
2.883541927155602E+002	9.2556095E-003	-9.5480843E-004	0	0
2.983541924629390E+002	9.2556095E-003	-8.9902797E-004	0	0
3.083541922103177E+002	9.1983452E-003	-9.0265751E-004	0	0
3.183541919576965E+002	9.1792569E-003	-8.7069208E-004	0	0
3.283541917050752E+002	9.3128746E-003	-8.1701297E-004	0	0
3.383541914524540E+002	9.2746979E-003	-7.8574783E-004	0	0
3.483541911998327E+002	9.2937863E-003	-7.7867979E-004	0	0
3.583541909472115E+002	9.2937863E-003	-7.8084483E-004	0	0
3.683541906945902E+002	9.3128746E-003	-7.1882410E-004	0	0
3.783541904419690E+002	9.3319630E-003	-7.1850570E-004	0	0
3.883541901893477E+002	9.1792569E-003	-6.9348101E-004	0	0
3.983541899367265E+002	9.2746979E-003	-6.9972128E-004	0	0
4.083541896841052E+002	9.1792569E-003	-6.8494835E-004	0	0
4.183541894314840E+002	9.1792569E-003	-6.8475737E-004	0	0
4.283541891788627E+002	9.2746979E-003	-6.8424793E-004	0	0
4.383541889262415E+002	9.2937863E-003	-6.8182824E-004	0	0
4.483541886736202E+002	9.2937863E-003	-5.9949479E-004	0	0
4.583541884209990E+002	9.2174336E-003	-6.0471630E-004	0	0
4.683541881683777E+002	9.3510514E-003	-6.2216358E-004	0	0
4.783541879157565E+002	9.2556095E-003	-6.2445592E-004	0	0
4.883541876631352E+002	9.3128746E-003	-5.8058294E-004	0	0
4.983541874105140E+002	9.2365211E-003	-5.4078532E-004	0	0
5.083541871578927E+002	9.1219917E-003	-5.7084044E-004	0	0
5.183541869052715E+002	9.1792569E-003	-5.7033112E-004	0	0
5.283541866526502E+002	9.2365211E-003	-5.3403561E-004	0	0
5.383541864000290E+002	9.1601685E-003	-5.7638029E-004	0	0
5.483541861474077E+002	9.1792569E-003	-5.3900236E-004	0	0
5.583541858947865E+002	9.2174336E-003	-5.3390826E-004	0	0
5.683541856421652E+002	9.3319630E-003	-5.1302242E-004	0	0
5.783541853895440E+002	9.2746979E-003	-5.0627271E-004	0	0
5.883541851369228E+002	9.3128746E-003	-4.8914377E-004	0	0
5.983541848843015E+002	9.3319630E-003	-4.9455633E-004	0	0
6.083541846316803E+002	9.2556095E-003	-4.9175456E-004	0	0
6.183541843790590E+002	9.2556095E-003	-4.7035931E-004	0	0
6.283541841264378E+002	9.3319630E-003	-5.1728875E-004	0	0
6.383541838738165E+002	9.1983452E-003	-4.8010176E-004	0	0
6.483541836211953E+002	9.2937863E-003	-4.8583260E-004	0	0
6.583541833685740E+002	9.1792569E-003	-4.4590762E-004	0	0
6.683541831159528E+002	9.2937863E-003	-4.5233892E-004	0	0
6.783541828633315E+002	9.2746979E-003	-4.6736651E-004	0	0
6.883541826107103E+002	9.2746979E-003	-4.8042016E-004	0	0
6.983541823580890E+002	9.2746979E-003	-4.7806412E-004	0	0
7.083541821054678E+002	9.2556095E-003	-4.5011021E-004	0	0
7.183541818528465E+002	9.2556095E-003	-4.0470902E-004	0	0
7.283541816002253E+002	9.3510514E-003	-4.2705939E-004	0	0
7.383541813476040E+002	9.2174336E-003	-4.1107670E-004	0	0
7.483541810949828E+002	9.2365211E-003	-4.5221153E-004	0	0
7.583541808423615E+002	9.2365211E-003	-4.0031536E-004	0	0
7.683541805897403E+002	9.2365211E-003	-4.1368738E-004	0	0
7.783541803371190E+002	9.2556095E-003	-4.0190728E-004	0	0
7.883541800844978E+002	9.2365211E-003	-4.0222565E-004	0	0
7.983541798318765E+002	9.1792569E-003	-4.4565293E-004	0	0
8.083541795792553E+002	9.2746979E-003	-4.0069740E-004	0	0
8.183541793266340E+002	9.2937863E-003	-3.9541232E-004	0	0
8.283541790740128E+002	9.1792569E-003	-3.8579715E-004	0	0
8.383541788213915E+002	9.3319630E-003	-3.9375672E-004	0	0
8.483541785687703E+002	9.3701398E-003	-4.0343552E-004	0	0
8.583541783161490E+002	9.2556095E-003	-3.9725893E-004	0	0
8.683541780635278E+002	9.2365211E-003	-4.0598257E-004	0	0
8.783541778109065E+002	9.2365211E-003	-3.6758580E-004	0	0
8.883541775582853E+002	9.1410801E-003	-3.8076681E-004	0	0
8.983541773056641E+002	9.2556095E-003	-3.5937154E-004	0	0
9.083541770530428E+002	9.2174336E-003	-3.4135114E-004	0	0
9.183541768004216E+002	9.2746979E-003	-3.7764662E-004	0	0
9.283541765478003E+002	9.2937863E-003	-3.8426896E-004	0	0
9.383541762951791E+002	9.3701398E-003	-3.8547884E-004	0	0
9.483541760425578E+002	9.3128746E-003	-3.7771033E-004	0	0
9.583541757899366E+002	9.2556095E-003	-3.6236434E-004	0	0
9.683541755373153E+002	9.2365211E-003	-3.4517175E-004	0	0
9.783541752846941E+002	9.1792569E-003	-3.2517739E-004	0	0
9.883541750320728E+002	9.2937863E-003	-3.7605473E-004	0	0
9.983541747794516E+002	9.1601685E-003	-3.4841924E-004	0	0
1.008354174526830E+003	9.2174336E-003	-3.3237282E-004	0	0
1.018354174274209E+003	9.3319630E-003	-3.5975361E-004	0	0
1.028354174021588E+003	9.3510514E-003	-3.1893712E-004	0	0
1.038354173768967E+003	9.2556095E-003	-3.6943241E-004	0	0
1.048354173516345E+003	9.1983452E-003	-3.2772444E-004	0	0
1.058354173263724E+003	9.3510514E-003	-3.4873761E-004	0	0
1.068354173011103E+003	9.2746979E-003	-3.5593304E-004	0	0
1.078354172758482E+003	9.3319630E-003	-3.3466515E-004	0	0
1.088354172505860E+003	9.2556095E-003	-3.2122943E-004	0	0
1.098354172253239E+003	9.2937863E-003	-3.4924701E-004	0	0
1.108354172000618E+003	9.2937863E-003	-3.1651740E-004	0	0
1.118354171747997E+003	9.2365211E-003	-3.3428310E-004	0	0
1.128354171495375E+003	9.2174336E-003	-3.2880696E-004	0	0
1.138354171242754E+003	9.3510514E-003	-3.3122662E-004	0	0
1.148354170990133E+003	9.1983452E-003	-3.3294590E-004	0	0
1.158354170737512E+003	9.2746979E-003	-3.3861308E-004	0	0
1.168354170484890E+003	9.1601685E-003	-2.8346945E-004	0	0
1.178354170232269E+003	9.1410801E-003	-3.6344683E-004	0	0
1.188354169979648E+003	9.1792569E-003	-3.1594431E-004	0	0
1.198354169727027E+003	9.2746979E-003	-3.1244213E-004	0	0
1.208354169474405E+003	9.3128746E-003	-3.1276050E-004	0	0
1.218354169221784E+003	9.2365211E-003	-3.3313691E-004	0	0
1.228354168969163E+003	9.2365211E-003	-2.8308737E-004	0	0
1.238354168716542E+003	9.2174336E-003	-3.2689664E-004	0	0
1.248354168463920E+003	9.1601685E-003	-2.9684143E-004	0	0
1.258354168211299E+003	9.2937863E-003	-2.9448542E-004	0	0
1.268354167958678E+003	9.2556095E-003	-3.0021628E-004	0	0
1.278354167706057E+003	9.1983452E-003	-2.6984271E-004	0	0
1.288354167453435E+003	9.3701398E-003	-3.0970405E-004	0	0
1.298354167200814E+003	9.1792569E-003	-2.9900644E-004	0	0
1.308354166948193E+003	9.1792569E-003	-2.7945783E-004	0	0
1.318354166695572E+003	9.3319630E-003	-2.7652871E-004	0	0
1.328354166442950E+003	9.3128746E-003	-2.7328121E-004	0	0
1.338354166190329E+003	9.1601685E-003	-3.0543774E-004	0	0
1.348354165937708E+003	9.1792569E-003	-3.0932200E-004	0	0
1.358354165685087E+003	9.3128746E-003	-2.6678623E-004	0	0
1.368354165432465E+003	9.3701398E-003	-2.8856352E-004	0	0
1.378354165179844E+003	9.1983452E-003	-2.7933047E-004	0	0
1.388354164927223E+003	9.2746979E-003	-2.5379626E-004	0	0
1.398354164674602E+003	9.2937863E-003	-2.5080351E-004	0	0
1.408354164421980E+003	9.2746979E-003	-2.6417553E-004	0	0
1.418354164169359E+003	9.1792569E-003	-2.6010023E-004	0	0
1.428354163916738E+003	9.2365211E-003	-2.6869652E-004	0	0
1.438354163664117E+003	9.3319630E-003	-2.8888191E-004	0	0
1.448354163411495E+003	9.1601685E-003	-2.8951865E-004	0	0
1.458354163158874E+003	9.3128746E-003	-2.4545469E-004	0	0
1.468354162906253E+003	9.3319630E-003	-2.8003092E-004	0	0
1.478354162653632E+003	9.2937863E-003	-2.6882390E-004	0	0
1.488354162401010E+003	9.3128746E-003	-2.5048511E-004	0	0
1.498354162148389E+003	9.2174336E-003	-2.4265291E-004	0	0
1.508354161895768E+003	9.1410801E-003	-2.6251993E-004	0	0
1.518354161643147E+003	9.1983452E-003	-2.8531603E-004	0	0
1.528354161390525E+003	9.2937863E-003	-2.7843899E-004	0	0
1.538354161137904E+003	9.2556095E-003	-2.7232605E-004	0	0
1.548354160885283E+003	9.2937863E-003	-2.4609145E-004	0	0
1.558354160632662E+003	9.2556095E-003	-2.2940825E-004	0	0
1.568354160380040E+003	9.2746979E-003	-2.5373258E-004	0	0
1.578354160127419E+003	9.1983452E-003	-2.8238696E-004	0	0
1.588354159874798E+003	9.2937863E-003	-2.6099171E-004	0	0
1.598354159622177E+003	9.2365211E-003	-2.3921439E-004	0	0
1.608354159369555E+003	9.2174336E-003	-2.6997007E-004	0	0
1.618354159116934E+003	9.2174336E-003	-2.6474861E-004	0	0
1.628354158864313E+003	9.2365211E-003	-2.2361371E-004	0	0
1.638354158611692E+003	9.3510514E-003	-2.5169496E-004	0	0
1.648354158359070E+003	9.2937863E-003	-2.7627402E-004	0	0
1.658354158106449E+003	9.3128746E-003	-2.2985398E-004	0	0
1.668354157853828E+003	9.1983452E-003	-2.5812630E-004	0	0
1.678354157601207E+003	9.2937863E-003	-2.6041863E-004	0	0
1.688354157348585E+003	9.2746979E-003	-2.5952712E-004	0	0
1.698354157095964E+003	9.1601685E-003	-2.4494526E-004	0	0
1.708354156843343E+003	9.2556095E-003	-2.2584238E-004	0	0
1.718354156590722E+003	9.2174336E-003	-2.2889883E-004	0	0
1.728354156338100E+003	9.2556095E-003	-2.4176145E-004	0	0
1.738354156085479E+003	9.2556095E-003	-2.5806259E-004	0	0
1.748354155832858E+003	9.2746979E-003	-2.3443866E-004	0	0
1.758354155580237E+003	9.2937863E-003	-2.4188879E-004	0	0
1.768354155327615E+003	9.2174336E-003	-2.4749231E-004	0	0
1.778354155074994E+003	9.2556095E-003	-2.3373825E-004	0	0
1.788354154822373E+003	9.2556095E-003	-2.4870218E-004	0	0
1.798354154569752E+003	9.2174336E-003	-2.4309865E-004	0	0
1.808354154317130E+003	9.2365211E-003	-2.4106103E-004	0	0
1.818354154064509E+003	9.3128746E-003	-2.3335619E-004	0	0
1.828354153811888E+003	9.1792569E-003	-2.3704940E-004	0	0
1.838354153559267E+003	9.2746979E-003	-2.5048511E-004	0	0
1.848354153306645E+003	9.2174336E-003	-2.6404817E-004	0	0
1.858354153054024E+003	9.2365211E-003	-2.4099732E-004	0	0
1.860052753011114E+003	9.1792569E-003	-2.2959929E-004	0	0