time/s	Ewe/V	I/mA	error	Ece/V	
6.005299848293362E+001	2.9140270E+000	-2.5020160E-002	0	-4.8618729E-004
6.017319847989711E+001	9.4082728E-003	-2.7624252E+001	0	6.5659973E-005
6.017359847988700E+001	9.2937499E-003	-2.7536388E+001	0	4.6574281E-005
6.017399847987690E+001	9.4846217E-003	-2.7444067E+001	0	2.7488590E-005
6.017419847987185E+001	9.4082728E-003	-2.7393768E+001	0	-8.7025561E-005
6.017459847986174E+001	9.5227966E-003	-2.7302084E+001	0	2.7488590E-005
6.017499847985164E+001	9.4082728E-003	-2.7211037E+001	0	6.5659973E-005
6.017519847984659E+001	9.4846217E-003	-2.7152462E+001	0	2.7488590E-005
6.017559847983648E+001	9.4464477E-003	-2.7072876E+001	0	4.6574281E-005
6.017579847983143E+001	9.4655352E-003	-2.7014938E+001	0	-1.0682794E-005
6.017619847982132E+001	9.3700988E-003	-2.6931532E+001	0	-1.0682794E-005
6.017659847981122E+001	9.3700988E-003	-2.6839846E+001	0	-8.7025561E-005
6.017699847980111E+001	9.4655352E-003	-2.6751347E+001	0	4.6574281E-005
6.017739847979101E+001	9.3319239E-003	-2.6664120E+001	0	-4.8854177E-005
6.017759847978596E+001	9.3128365E-003	-2.6613182E+001	0	2.7488590E-005
6.017799847977585E+001	9.4082728E-003	-2.6529140E+001	0	-8.7025561E-005
6.017839847976575E+001	9.4655352E-003	-2.6443823E+001	0	-2.9768486E-005
6.017879847975564E+001	9.3700988E-003	-2.6361052E+001	0	6.5659973E-005
6.017919847974554E+001	9.3128365E-003	-2.6272552E+001	0	6.5659973E-005
6.017959847973543E+001	9.4082728E-003	-2.6190420E+001	0	1.0383136E-004
6.017999847972533E+001	9.5418841E-003	-2.6103830E+001	0	8.4028979E-006
6.018039847971522E+001	9.3891853E-003	-2.6027428E+001	0	6.5659973E-005
6.018079847970512E+001	9.4273603E-003	-2.5939566E+001	0	1.0383136E-004
6.018119847969501E+001	9.3891853E-003	-2.5861887E+001	0	-6.7939873E-005
6.018159847968491E+001	9.5227966E-003	-2.5782936E+001	0	2.7488590E-005
6.018199847967480E+001	9.4846217E-003	-2.5698257E+001	0	1.4200274E-004
6.018239847966470E+001	9.4082728E-003	-2.5622490E+001	0	8.4745661E-005
6.018279847965459E+001	9.4655352E-003	-2.5534628E+001	0	2.7488590E-005
6.018319847964449E+001	9.4846217E-003	-2.5459497E+001	0	-4.8854177E-005
6.018359847963438E+001	9.3891853E-003	-2.5382458E+001	0	-8.7025561E-005
6.018399847962428E+001	9.3319239E-003	-2.5304146E+001	0	6.5659973E-005
6.018439847961417E+001	9.4082728E-003	-2.5227106E+001	0	-4.8854177E-005
6.018479847960407E+001	9.3700988E-003	-2.5153883E+001	0	2.7488590E-005
6.018519847959396E+001	9.4082728E-003	-2.5078119E+001	0	-4.8854177E-005
6.018559847958386E+001	9.4273603E-003	-2.5000443E+001	0	1.0383136E-004
6.018599847957375E+001	9.3510114E-003	-2.4934864E+001	0	8.4745661E-005
6.018639847956365E+001	9.5037092E-003	-2.4847637E+001	0	-2.9768486E-005
6.018679847955354E+001	9.3891853E-003	-2.4778873E+001	0	-1.0682794E-005
6.018719847954344E+001	9.4655352E-003	-2.4703745E+001	0	2.7488590E-005
6.018759847953334E+001	9.3891853E-003	-2.4633707E+001	0	8.4028979E-006
6.018799847952323E+001	9.4273603E-003	-2.4564945E+001	0	8.4745661E-005
6.018839847951313E+001	9.4464477E-003	-2.4489180E+001	0	4.6574281E-005
6.018879847950302E+001	9.4273603E-003	-2.4426783E+001	0	-1.0611126E-004
6.018919847949292E+001	9.5037092E-003	-2.4358021E+001	0	-2.9768486E-005
6.018959847948281E+001	9.3700988E-003	-2.4280981E+001	0	8.4028979E-006
6.018999847947271E+001	9.4082728E-003	-2.4212215E+001	0	-1.0611126E-004
6.019039847946260E+001	9.5418841E-003	-2.4144093E+001	0	1.2291704E-004
6.019079847945250E+001	9.3700988E-003	-2.4084879E+001	0	-1.0682794E-005
6.019119847944239E+001	9.4846217E-003	-2.4011023E+001	0	-2.9768486E-005
6.019159847943229E+001	9.4273603E-003	-2.3937803E+001	0	-8.7025561E-005
6.019199847942218E+001	9.3700988E-003	-2.3871588E+001	0	4.6574281E-005
6.019239847941208E+001	9.4082728E-003	-2.3814285E+001	0	6.5659973E-005
6.019279847940197E+001	9.3128365E-003	-2.3742975E+001	0	-4.8854177E-005
6.019319847939187E+001	9.3891853E-003	-2.3679945E+001	0	8.4028979E-006
6.019359847938176E+001	9.4655352E-003	-2.3613728E+001	0	1.4200274E-004
6.019399847937166E+001	9.3319239E-003	-2.3551331E+001	0	-2.9768486E-005
6.019439847936155E+001	9.3700988E-003	-2.3487026E+001	0	2.7488590E-005
6.019479847935145E+001	9.4082728E-003	-2.3421446E+001	0	1.8017412E-004
6.019519847934134E+001	9.4464477E-003	-2.3355230E+001	0	2.7488590E-005
6.019559847933124E+001	9.4655352E-003	-2.3299200E+001	0	-4.8854177E-005
6.019599847932113E+001	9.4082728E-003	-2.3232347E+001	0	8.4028979E-006
6.019639847931103E+001	9.4273603E-003	-2.3168680E+001	0	-4.8854177E-005
6.019679847930092E+001	9.4655352E-003	-2.3109467E+001	0	1.2291704E-004
6.019719847929082E+001	9.3891853E-003	-2.3056622E+001	0	-4.8854177E-005
6.019759847928071E+001	9.4273603E-003	-2.2985947E+001	0	-1.0682794E-005
6.019799847927061E+001	9.4464477E-003	-2.2925463E+001	0	4.6574281E-005
6.019839847926050E+001	9.3700988E-003	-2.2868797E+001	0	-4.8854177E-005
6.019879847925040E+001	9.5227966E-003	-2.2808949E+001	0	-6.7939873E-005
6.019919847924029E+001	9.5227966E-003	-2.2748461E+001	0	6.5659973E-005
6.019959847923019E+001	9.4082728E-003	-2.2689886E+001	0	-2.9768486E-005
6.019999847922008E+001	9.3319239E-003	-2.2635132E+001	0	-1.0682794E-005
6.020039847920998E+001	9.3510114E-003	-2.2575918E+001	0	-2.9768486E-005
6.020079847919988E+001	9.5227966E-003	-2.2519253E+001	0	1.0383136E-004
6.020119847918977E+001	9.3700988E-003	-2.2463860E+001	0	6.5659973E-005
6.020159847917967E+001	9.5609706E-003	-2.2401464E+001	0	8.4028979E-006
6.020199847916956E+001	9.4464477E-003	-2.2349257E+001	0	-6.7939873E-005
6.020239847915946E+001	9.4273603E-003	-2.2290680E+001	0	1.2291704E-004
6.020279847914935E+001	9.3319239E-003	-2.2235287E+001	0	-4.8854177E-005
6.020319847913925E+001	9.4273603E-003	-2.2184990E+001	0	8.4745661E-005
6.020359847912914E+001	9.4464477E-003	-2.2118773E+001	0	-1.0682794E-005
6.020419847911398E+001	9.3700988E-003	-2.2032183E+001	0	-2.9768486E-005
6.020479847909883E+001	9.3510114E-003	-2.1960875E+001	0	1.0383136E-004
6.020519847908872E+001	9.5418841E-003	-2.1899752E+001	0	2.7488590E-005
6.020579847907356E+001	9.3891853E-003	-2.1825258E+001	0	-1.0682794E-005
6.020619847906346E+001	9.4273603E-003	-2.1771776E+001	0	1.4200274E-004
6.020659847905335E+001	9.3319239E-003	-2.1721478E+001	0	2.7488590E-005
6.020699847904325E+001	9.5037092E-003	-2.1667994E+001	0	-4.8854177E-005
6.020739847903315E+001	9.3700988E-003	-2.1604326E+001	0	-1.0682794E-005
6.020799847901799E+001	9.4273603E-003	-2.1534927E+001	0	8.4028979E-006
6.020839847900788E+001	9.4655352E-003	-2.1476351E+001	0	6.5659973E-005
6.020899847899273E+001	9.5037092E-003	-2.1399948E+001	0	2.7488590E-005
6.020959847897757E+001	9.4273603E-003	-2.1326090E+001	0	-4.8854177E-005
6.021019847896241E+001	9.4082728E-003	-2.1260513E+001	0	-8.7025561E-005
6.021059847895231E+001	9.4273603E-003	-2.1197479E+001	0	4.6574281E-005
6.021119847893715E+001	9.4846217E-003	-2.1124897E+001	0	-4.8854177E-005
6.021179847892199E+001	9.3891853E-003	-2.1059319E+001	0	-1.0682794E-005
6.021219847891189E+001	9.5418841E-003	-2.1005835E+001	0	8.4028979E-006
6.021279847889673E+001	9.5037092E-003	-2.0935162E+001	0	-1.0682794E-005
6.021319847888662E+001	9.4464477E-003	-2.0879770E+001	0	1.8017412E-004
6.021379847887147E+001	9.3700988E-003	-2.0811007E+001	0	1.2291704E-004
6.021439847885631E+001	9.4273603E-003	-2.0744152E+001	0	4.6574281E-005
6.021499847884115E+001	9.4082728E-003	-2.0662020E+001	0	8.4745661E-005
6.021559847882600E+001	9.2937499E-003	-2.0602171E+001	0	-1.0682794E-005
6.021599847881589E+001	9.4273603E-003	-2.0551872E+001	0	4.6574281E-005
6.021659847880073E+001	9.3319239E-003	-2.0488203E+001	0	-6.7939873E-005
6.021699847879063E+001	9.4846217E-003	-2.0435358E+001	0	-1.0682794E-005
6.021759847877547E+001	9.4464477E-003	-2.0372961E+001	0	8.4745661E-005
6.021819847876031E+001	9.5037092E-003	-2.0299107E+001	0	-4.8854177E-005
6.021879847874516E+001	9.4082728E-003	-2.0239256E+001	0	-6.7939873E-005
6.021939847873000E+001	9.3891853E-003	-2.0166674E+001	0	4.6574281E-005
6.021999847871484E+001	9.4464477E-003	-2.0099184E+001	0	6.5659973E-005
6.022059847869969E+001	9.4273603E-003	-2.0031694E+001	0	-6.7939873E-005
6.022119847868453E+001	9.3700988E-003	-1.9966116E+001	0	1.0383136E-004
6.022179847866937E+001	9.3700988E-003	-1.9901173E+001	0	-4.8854177E-005
6.022239847865421E+001	9.4273603E-003	-1.9837505E+001	0	8.4028979E-006
6.022299847863906E+001	9.3510114E-003	-1.9773834E+001	0	-1.0611126E-004
6.022359847862390E+001	9.3700988E-003	-1.9711439E+001	0	1.0383136E-004
6.022419847860874E+001	9.3891853E-003	-1.9652863E+001	0	6.5659973E-005
6.022479847859358E+001	9.4655352E-003	-1.9580915E+001	0	1.0383136E-004
6.022539847857843E+001	9.4273603E-003	-1.9519157E+001	0	-2.9768486E-005
6.022599847856327E+001	9.4655352E-003	-1.9454216E+001	0	4.6574281E-005
6.022659847854811E+001	9.4273603E-003	-1.9393093E+001	0	8.4745661E-005
6.022719847853296E+001	9.2937499E-003	-1.9330061E+001	0	-4.8854177E-005
6.022779847851780E+001	9.4464477E-003	-1.9273394E+001	0	1.9925981E-004
6.022839847850264E+001	9.5037092E-003	-1.9212273E+001	0	6.5659973E-005
6.022899847848748E+001	9.3700988E-003	-1.9161337E+001	0	-6.7939873E-005
6.022959847847233E+001	9.4464477E-003	-1.9090664E+001	0	-1.0611126E-004
6.023019847845717E+001	9.5037092E-003	-1.9026995E+001	0	1.2291704E-004
6.023079847844201E+001	9.4655352E-003	-1.8968420E+001	0	1.2291704E-004
6.023139847842685E+001	9.4082728E-003	-1.8911755E+001	0	6.5659973E-005
6.023199847841170E+001	9.3891853E-003	-1.8850632E+001	0	8.4028979E-006
6.023259847839654E+001	9.4846217E-003	-1.8791418E+001	0	4.6574281E-005
6.023319847838138E+001	9.3510114E-003	-1.8741119E+001	0	2.7488590E-005
6.023379847836623E+001	9.4464477E-003	-1.8675541E+001	0	-6.7939873E-005
6.023459847834602E+001	9.4846217E-003	-1.8611870E+001	0	2.7488590E-005
6.023519847833086E+001	9.5418841E-003	-1.8546928E+001	0	1.9925981E-004
6.023579847831570E+001	9.3700988E-003	-1.8494081E+001	0	1.2291704E-004
6.023639847830054E+001	9.4655352E-003	-1.8441238E+001	0	6.5659973E-005
6.023699847828539E+001	9.5227966E-003	-1.8384571E+001	0	-8.7025561E-005
6.023759847827023E+001	9.4082728E-003	-1.8324722E+001	0	2.7488590E-005
6.023819847825507E+001	9.3700988E-003	-1.8263599E+001	0	1.2291704E-004
6.023899847823486E+001	9.4846217E-003	-1.8199295E+001	0	-2.9768486E-005
6.023959847821970E+001	9.4655352E-003	-1.8146448E+001	0	6.5659973E-005
6.024019847820455E+001	9.4082728E-003	-1.8094240E+001	0	4.6574281E-005
6.024099847818434E+001	9.5037092E-003	-1.8022293E+001	0	2.7488590E-005
6.024159847816918E+001	9.3700988E-003	-1.7967539E+001	0	1.6108842E-004
6.024219847815402E+001	9.4273603E-003	-1.7917240E+001	0	-2.9768486E-005
6.024279847813887E+001	9.4846217E-003	-1.7858665E+001	0	8.4028979E-006
6.024339847812371E+001	9.4273603E-003	-1.7808365E+001	0	-1.0682794E-005
6.024419847810350E+001	9.4273603E-003	-1.7735146E+001	0	8.4745661E-005
6.024499847808329E+001	9.4273603E-003	-1.7677843E+001	0	-2.9768486E-005
6.024559847806813E+001	9.3700988E-003	-1.7626907E+001	0	6.5659973E-005
6.024619847805297E+001	9.2937499E-003	-1.7572788E+001	0	-2.9768486E-005
6.024679847803782E+001	9.3891853E-003	-1.7521217E+001	0	2.7488590E-005
6.024739847802266E+001	9.4655352E-003	-1.7469009E+001	0	-2.9768486E-005
6.024819847800245E+001	9.4273603E-003	-1.7405977E+001	0	8.4745661E-005
6.024879847798729E+001	9.3700988E-003	-1.7352493E+001	0	8.4745661E-005
6.024959847796708E+001	9.3700988E-003	-1.7291370E+001	0	-4.8854177E-005
6.025019847795193E+001	9.5609706E-003	-1.7241072E+001	0	-6.7939873E-005
6.025099847793172E+001	9.4655352E-003	-1.7172310E+001	0	1.4200274E-004
6.025179847791151E+001	9.3891853E-003	-1.7109278E+001	0	4.6574281E-005
6.025259847789130E+001	9.4464477E-003	-1.7053247E+001	0	2.7488590E-005
6.025319847787614E+001	9.3891853E-003	-1.6999130E+001	0	-4.8854177E-005
6.025399847785593E+001	9.3891853E-003	-1.6945009E+001	0	-4.8854177E-005
6.025459847784077E+001	9.5037092E-003	-1.6890255E+001	0	-4.8854177E-005
6.025519847782562E+001	9.4082728E-003	-1.6836775E+001	0	1.0383136E-004
6.025599847780541E+001	9.3700988E-003	-1.6778833E+001	0	1.2291704E-004
6.025679847778520E+001	9.4464477E-003	-1.6722168E+001	0	6.5659973E-005
6.025739847777004E+001	9.3700988E-003	-1.6669323E+001	0	1.0383136E-004
6.025819847774983E+001	9.5227966E-003	-1.6610746E+001	0	2.7488590E-005
6.025899847772962E+001	9.4082728E-003	-1.6558538E+001	0	8.4745661E-005
6.025979847770941E+001	9.4846217E-003	-1.6493595E+001	0	-2.9768486E-005
6.026059847768920E+001	9.4464477E-003	-1.6433748E+001	0	8.4745661E-005
6.026139847766899E+001	9.3891853E-003	-1.6380264E+001	0	1.4200274E-004
6.026219847764878E+001	9.4464477E-003	-1.6315323E+001	0	-2.9768486E-005
6.026299847762857E+001	9.4273603E-003	-1.6253561E+001	0	-1.0682794E-005
6.026379847760836E+001	9.5037092E-003	-1.6203264E+001	0	1.4200274E-004
6.026459847758815E+001	9.5418841E-003	-1.6139595E+001	0	-2.9768486E-005
6.026539847756794E+001	9.3891853E-003	-1.6088022E+001	0	-4.8854177E-005
6.026619847754773E+001	9.4273603E-003	-1.6031357E+001	0	8.4028979E-006
6.026699847752752E+001	9.4082728E-003	-1.5979148E+001	0	-8.7025561E-005
6.026779847750731E+001	9.4464477E-003	-1.5914843E+001	0	1.2291704E-004
6.026859847748710E+001	9.3510114E-003	-1.5861995E+001	0	2.7488590E-005
6.026939847746689E+001	9.4273603E-003	-1.5804057E+001	0	-8.7025561E-005
6.027019847744668E+001	9.5037092E-003	-1.5750575E+001	0	-4.8854177E-005
6.027099847742647E+001	9.4464477E-003	-1.5698367E+001	0	-4.8854177E-005
6.027179847740626E+001	9.5227966E-003	-1.5646156E+001	0	-2.9768486E-005
6.027259847738605E+001	9.4655352E-003	-1.5587582E+001	0	4.6574281E-005
6.027339847736584E+001	9.3700988E-003	-1.5534100E+001	0	1.8017412E-004
6.027419847734564E+001	9.4464477E-003	-1.5483166E+001	0	4.6574281E-005
6.027499847732543E+001	9.5037092E-003	-1.5426499E+001	0	6.5659973E-005
6.027579847730522E+001	9.4082728E-003	-1.5374927E+001	0	-6.7939873E-005
6.027679847727995E+001	9.3891853E-003	-1.5306801E+001	0	-1.0682794E-005
6.027759847725974E+001	9.5037092E-003	-1.5252682E+001	0	2.7488590E-005
6.027859847723448E+001	9.3700988E-003	-1.5197926E+001	0	-1.0682794E-005
6.027939847721427E+001	9.3700988E-003	-1.5141897E+001	0	-1.0682794E-005
6.028039847718901E+001	9.4082728E-003	-1.5083959E+001	0	1.2291704E-004
6.028119847716880E+001	9.4464477E-003	-1.5026656E+001	0	4.6574281E-005
6.028219847714354E+001	9.5227966E-003	-1.4970627E+001	0	8.4028979E-006
6.028299847712333E+001	9.5227966E-003	-1.4917145E+001	0	4.6574281E-005
6.028379847710312E+001	9.5037092E-003	-1.4866846E+001	0	-8.7025561E-005
6.028479847707786E+001	9.4846217E-003	-1.4808271E+001	0	-1.0682794E-005
6.028559847705765E+001	9.4464477E-003	-1.4757972E+001	0	8.4745661E-005
6.028659847703238E+001	9.4273603E-003	-1.4700669E+001	0	8.4028979E-006
6.028739847701218E+001	9.4273603E-003	-1.4650373E+001	0	8.4745661E-005
6.028859847698186E+001	9.5037092E-003	-1.4575241E+001	0	4.6574281E-005
6.028959847695660E+001	9.3891853E-003	-1.4521759E+001	0	8.4028979E-006
6.029059847693134E+001	9.3510114E-003	-1.4463184E+001	0	4.6574281E-005
6.029159847690607E+001	9.4082728E-003	-1.4407792E+001	0	6.5659973E-005
6.029239847688586E+001	9.4082728E-003	-1.4352399E+001	0	6.5659973E-005
6.029339847686060E+001	9.4464477E-003	-1.4301463E+001	0	-1.4428265E-004
6.029439847683534E+001	9.4273603E-003	-1.4246071E+001	0	-1.0682794E-005
6.029539847681008E+001	9.4655352E-003	-1.4191953E+001	0	2.7488590E-005
6.029639847678482E+001	9.4846217E-003	-1.4136560E+001	0	-2.9768486E-005
6.029739847675955E+001	9.3128365E-003	-1.4074801E+001	0	2.7488590E-005
6.029839847673429E+001	9.4655352E-003	-1.4022593E+001	0	1.2291704E-004
6.029959847670398E+001	9.4655352E-003	-1.3959559E+001	0	4.6574281E-005
6.030059847667872E+001	9.4655352E-003	-1.3906077E+001	0	1.2291704E-004
6.030159847665345E+001	9.4273603E-003	-1.3852594E+001	0	1.0383136E-004
6.030239847663324E+001	9.4655352E-003	-1.3801023E+001	0	4.6574281E-005
6.030359847660293E+001	9.5227966E-003	-1.3741811E+001	0	4.6574281E-005
6.030479847657261E+001	9.4464477E-003	-1.3690239E+001	0	8.4745661E-005
6.030579847654735E+001	9.5037092E-003	-1.3627206E+001	0	-1.0682794E-005
6.030699847651704E+001	9.4655352E-003	-1.3559718E+001	0	-4.8854177E-005
6.030819847648672E+001	9.4273603E-003	-1.3504326E+001	0	-2.9768486E-005
6.030919847646146E+001	9.5991455E-003	-1.3451480E+001	0	1.0383136E-004
6.031039847643115E+001	9.5037092E-003	-1.3393540E+001	0	2.7488590E-005
6.031159847640083E+001	9.2937499E-003	-1.3337511E+001	0	-4.8854177E-005
6.031279847637052E+001	9.4655352E-003	-1.3266839E+001	0	2.7488590E-005
6.031399847634020E+001	9.5037092E-003	-1.3213993E+001	0	1.0383136E-004
6.031519847630989E+001	9.3700988E-003	-1.3159874E+001	0	8.4028979E-006
6.031639847627957E+001	9.5037092E-003	-1.3098752E+001	0	1.2291704E-004
6.031759847624926E+001	9.4464477E-003	-1.3043997E+001	0	-4.8854177E-005
6.031879847621894E+001	9.3891853E-003	-1.2990514E+001	0	-4.8854177E-005
6.031999847618863E+001	9.3700988E-003	-1.2931301E+001	0	-2.9768486E-005
6.032119847615832E+001	9.4655352E-003	-1.2873363E+001	0	2.7488590E-005
6.032239847612800E+001	9.4655352E-003	-1.2820518E+001	0	8.4745661E-005
6.032359847609769E+001	9.5227966E-003	-1.2768309E+001	0	6.5659973E-005
6.032479847606737E+001	9.4082728E-003	-1.2716737E+001	0	-1.0682794E-005
6.032599847603706E+001	9.4464477E-003	-1.2658797E+001	0	-2.9768486E-005
6.032719847600674E+001	9.4846217E-003	-1.2605315E+001	0	1.4200274E-004
6.032839847597643E+001	9.4464477E-003	-1.2554380E+001	0	-1.0682794E-005
6.032979847594106E+001	9.3700988E-003	-1.2495805E+001	0	-1.0682794E-005
6.033099847591075E+001	9.5037092E-003	-1.2444869E+001	0	-2.9768486E-005
6.033199847588548E+001	9.5037092E-003	-1.2393934E+001	0	8.4028979E-006
6.033319847585517E+001	9.5227966E-003	-1.2343635E+001	0	-6.7939873E-005
6.033459847581980E+001	9.4082728E-003	-1.2285696E+001	0	1.6108842E-004
6.033599847578444E+001	9.4655352E-003	-1.2231577E+001	0	2.7488590E-005
6.033739847574907E+001	9.4846217E-003	-1.2170454E+001	0	-4.8854177E-005
6.033879847571370E+001	9.4846217E-003	-1.2108695E+001	0	8.4028979E-006
6.034019847567833E+001	9.4464477E-003	-1.2057123E+001	0	-6.7939873E-005
6.034139847564802E+001	9.4846217E-003	-1.2004915E+001	0	6.5659973E-005
6.034299847560760E+001	9.4655352E-003	-1.1942518E+001	0	1.4200274E-004
6.034439847557223E+001	9.4846217E-003	-1.1888400E+001	0	8.4745661E-005
6.034579847553687E+001	9.3319239E-003	-1.1838101E+001	0	-8.7025561E-005
6.034719847550150E+001	9.4846217E-003	-1.1778889E+001	0	-1.0682794E-005
6.034859847546613E+001	9.3700988E-003	-1.1727317E+001	0	-4.8854177E-005
6.035019847542571E+001	9.4846217E-003	-1.1668741E+001	0	1.2291704E-004
6.035159847539035E+001	9.3891853E-003	-1.1617169E+001	0	-4.8854177E-005
6.035319847534993E+001	9.5227966E-003	-1.1562413E+001	0	4.6574281E-005
6.035459847531456E+001	9.3319239E-003	-1.1505748E+001	0	4.6574281E-005
6.035619847527414E+001	9.5227966E-003	-1.1452266E+001	0	1.2291704E-004
6.035759847523877E+001	9.4655352E-003	-1.1401331E+001	0	6.5659973E-005
6.035899847520341E+001	9.5037092E-003	-1.1342118E+001	0	2.7488590E-005
6.036059847516299E+001	9.4273603E-003	-1.1285452E+001	0	4.6574281E-005
6.036239847511752E+001	9.4655352E-003	-1.1231970E+001	0	8.4028979E-006
6.036399847507710E+001	9.5037092E-003	-1.1177852E+001	0	4.6574281E-005
6.036559847503668E+001	9.3700988E-003	-1.1125643E+001	0	-2.9768486E-005
6.036699847500131E+001	9.4082728E-003	-1.1074708E+001	0	6.5659973E-005
6.036859847496089E+001	9.4655352E-003	-1.1019951E+001	0	-1.0682794E-005
6.037039847491542E+001	9.4464477E-003	-1.0959466E+001	0	2.7488590E-005
6.037219847486995E+001	9.4273603E-003	-1.0905347E+001	0	-2.9768486E-005
6.037379847482953E+001	9.5227966E-003	-1.0852502E+001	0	4.6574281E-005
6.037559847478406E+001	9.4655352E-003	-1.0799656E+001	0	-8.7025561E-005
6.037699847474869E+001	9.4273603E-003	-1.0748084E+001	0	8.4745661E-005
6.037879847470322E+001	9.5227966E-003	-1.0697785E+001	0	-1.0682794E-005
6.038039847466280E+001	9.3891853E-003	-1.0640483E+001	0	2.7488590E-005
6.038239847461227E+001	9.4846217E-003	-1.0581271E+001	0	2.7488590E-005
6.038439847456175E+001	9.3700988E-003	-1.0522058E+001	0	-2.9768486E-005
6.038619847451628E+001	9.4655352E-003	-1.0470486E+001	0	-2.9768486E-005
6.038799847447081E+001	9.4273603E-003	-1.0415730E+001	0	-2.9768486E-005
6.039019847441523E+001	9.6182330E-003	-1.0355882E+001	0	8.4745661E-005
6.039219847436470E+001	9.3700988E-003	-1.0296032E+001	0	-2.9768486E-005
6.039439847430913E+001	9.4464477E-003	-1.0240640E+001	0	2.7488590E-005
6.039599847426871E+001	9.4846217E-003	-1.0189068E+001	0	1.2291704E-004
6.039839847420808E+001	9.4655352E-003	-1.0129218E+001	0	1.4200274E-004
6.040019847416261E+001	9.3319239E-003	-1.0078920E+001	0	1.0383136E-004
6.040219847411208E+001	9.5609706E-003	-1.0023528E+001	0	-1.0682794E-005
6.040439847405651E+001	9.4464477E-003	-9.9725924E+000	0	-1.0682794E-005
6.040639847400598E+001	9.4846217E-003	-9.9184732E+000	0	1.4200274E-004
6.040859847395041E+001	9.3891853E-003	-9.8675375E+000	0	6.5659973E-005
6.041059847389988E+001	9.3510114E-003	-9.8076897E+000	0	6.5659973E-005
6.041279847384430E+001	9.4273603E-003	-9.7542067E+000	0	1.2291704E-004
6.041499847378873E+001	9.3510114E-003	-9.6988153E+000	0	1.4200274E-004
6.041699847373820E+001	9.3319239E-003	-9.6472425E+000	0	2.7488590E-005
6.041959847367252E+001	9.4082728E-003	-9.5886669E+000	0	-1.0682794E-005
6.042159847362200E+001	9.3510114E-003	-9.5383682E+000	0	-6.7939873E-005
6.042399847356137E+001	9.5227966E-003	-9.4848862E+000	0	-1.0682794E-005
6.042659847349569E+001	9.4273603E-003	-9.4288568E+000	0	4.6574281E-005
6.042879847344011E+001	9.4273603E-003	-9.3760118E+000	0	8.4028979E-006
6.043119847337948E+001	9.3319239E-003	-9.3238029E+000	0	8.4028979E-006
6.043339847332390E+001	9.3700988E-003	-9.2703209E+000	0	-1.0682794E-005
6.043619847325317E+001	9.4655352E-003	-9.2149286E+000	0	-4.8854177E-005
6.043879847318749E+001	9.4846217E-003	-9.1620836E+000	0	1.8017412E-004
6.044139847312181E+001	9.3891853E-003	-9.1086006E+000	0	-2.9768486E-005
6.044379847306118E+001	9.4082728E-003	-9.0576649E+000	0	1.0383136E-004
6.044639847299550E+001	9.4846217E-003	-9.0041828E+000	0	2.7488590E-005
6.044879847293487E+001	9.3510114E-003	-8.9538851E+000	0	8.4028979E-006
6.045139847286919E+001	9.5418841E-003	-8.8959455E+000	0	-2.9768486E-005
6.045439847279340E+001	9.4273603E-003	-8.8399162E+000	0	-1.0682794E-005
6.045759847271256E+001	9.4655352E-003	-8.7781582E+000	0	2.7488590E-005
6.046039847264183E+001	9.4655352E-003	-8.7278585E+000	0	-6.7939873E-005
6.046339847256604E+001	9.4464477E-003	-8.6705561E+000	0	-8.7025561E-005
6.046639847249025E+001	9.4082728E-003	-8.6189842E+000	0	1.0383136E-004
6.046919847241952E+001	9.4655352E-003	-8.5642290E+000	0	4.6574281E-005
6.047239847233868E+001	9.5037092E-003	-8.5113831E+000	0	-2.9768486E-005
6.047519847226795E+001	9.5037092E-003	-8.4579010E+000	0	-4.8854177E-005
6.047839847218711E+001	9.4655352E-003	-8.4076033E+000	0	-8.7025561E-005
6.048099847212143E+001	9.3700988E-003	-8.3566666E+000	0	-2.9768486E-005
6.048439847203554E+001	9.4846217E-003	-8.3044586E+000	0	8.4028979E-006
6.048759847195470E+001	9.4846217E-003	-8.2503395E+000	0	8.4745661E-005
6.049099847186881E+001	9.3700988E-003	-8.1981306E+000	0	2.7488590E-005
6.049419847178797E+001	9.4273603E-003	-8.1471958E+000	0	6.5659973E-005
6.049759847170208E+001	9.4464477E-003	-8.0956230E+000	0	-4.8854177E-005
6.050079847162124E+001	9.3510114E-003	-8.0415039E+000	0	-1.0682794E-005
6.050419847153535E+001	9.4846217E-003	-7.9886584E+000	0	-2.9768486E-005
6.050759847144946E+001	9.3891853E-003	-7.9383597E+000	0	8.4745661E-005
6.051099847136356E+001	9.3319239E-003	-7.8874245E+000	0	2.7488590E-005
6.051519847125746E+001	9.5609706E-003	-7.8288493E+000	0	8.4028979E-006
6.051879847116652E+001	9.4464477E-003	-7.7753668E+000	0	-2.9768486E-005
6.052239847107558E+001	9.4655352E-003	-7.7244310E+000	0	1.0383136E-004
6.052639847097453E+001	9.4273603E-003	-7.6728592E+000	0	2.1834551E-004
6.053019847087853E+001	9.5609706E-003	-7.6193771E+000	0	2.7488590E-005
6.053439847077243E+001	9.4655352E-003	-7.5678053E+000	0	-2.9768486E-005
6.053839847067138E+001	9.4846217E-003	-7.5136862E+000	0	1.2291704E-004
6.054239847057033E+001	9.4464477E-003	-7.4633880E+000	0	-2.9768486E-005
6.054679847045918E+001	9.5609706E-003	-7.4118161E+000	0	-4.8854177E-005
6.055079847035813E+001	9.4464477E-003	-7.3596067E+000	0	8.4745661E-005
6.055519847024698E+001	9.4273603E-003	-7.3061247E+000	0	8.4028979E-006
6.055959847013582E+001	9.4846217E-003	-7.2558260E+000	0	8.4028979E-006
6.056379847002972E+001	9.3891853E-003	-7.1997972E+000	0	8.4745661E-005
6.056859846990847E+001	9.4082728E-003	-7.1469517E+000	0	8.4745661E-005
6.057279846980236E+001	9.3700988E-003	-7.0966530E+000	0	1.4200274E-004
6.057779846967605E+001	9.3891853E-003	-7.0463538E+000	0	1.0383136E-004
6.058279846954974E+001	9.3891853E-003	-6.9903255E+000	0	6.5659973E-005
6.058739846943354E+001	9.4082728E-003	-6.9349327E+000	0	-6.7939873E-005
6.059299846929207E+001	9.4655352E-003	-6.8833609E+000	0	-2.9768486E-005
6.059819846916071E+001	9.4082728E-003	-6.8324251E+000	0	1.8017412E-004
6.060319846903440E+001	9.4655352E-003	-6.7808537E+000	0	-4.8854177E-005
6.060819846890809E+001	9.4273603E-003	-6.7299185E+000	0	-4.8854177E-005
6.061259846879693E+001	9.5037092E-003	-6.6789827E+000	0	-4.8854177E-005
6.061879846864031E+001	9.4655352E-003	-6.6280470E+000	0	8.4028979E-006
6.062399846850894E+001	9.4273603E-003	-6.5764751E+000	0	-1.0682794E-005
6.062979846836242E+001	9.4273603E-003	-6.5249028E+000	0	2.7488590E-005
6.063539846822096E+001	9.4273603E-003	-6.4733310E+000	0	8.4028979E-006
6.064139846806938E+001	9.3700988E-003	-6.4211221E+000	0	-1.0682794E-005
6.064739846791781E+001	9.3319239E-003	-6.3676405E+000	0	8.4028979E-006
6.065319846777129E+001	9.3700988E-003	-6.3103375E+000	0	8.4745661E-005
6.065979846760456E+001	9.4655352E-003	-6.2574921E+000	0	-1.4428265E-004
6.066679846742773E+001	9.4846217E-003	-6.2052836E+000	0	4.6574281E-005
6.067299846727110E+001	9.4464477E-003	-6.1537113E+000	0	6.5659973E-005
6.067959846710437E+001	9.4655352E-003	-6.1008663E+000	0	1.2291704E-004
6.068679846692248E+001	9.4655352E-003	-6.0473838E+000	0	-1.0611126E-004
6.069379846674565E+001	9.3891853E-003	-5.9888086E+000	0	4.6574281E-005
6.070119846655871E+001	9.4655352E-003	-5.9372363E+000	0	4.6574281E-005
6.070779846639198E+001	9.3700988E-003	-5.8869371E+000	0	-1.0682794E-005
6.071499846621009E+001	9.5227966E-003	-5.8353653E+000	0	6.5659973E-005
6.072239846602315E+001	9.3891853E-003	-5.7806101E+000	0	2.7488590E-005
6.073059846581600E+001	9.3700988E-003	-5.7264910E+000	0	1.0383136E-004
6.073899846560380E+001	9.4655352E-003	-5.6679153E+000	0	-1.8245402E-004
6.074739846539160E+001	9.4273603E-003	-5.6169801E+000	0	-1.2519695E-004
6.075579846517940E+001	9.3891853E-003	-5.5654082E+000	0	2.7488590E-005
6.076359846498235E+001	9.5037092E-003	-5.5151091E+000	0	6.5659973E-005
6.077099846479541E+001	9.4082728E-003	-5.4629002E+000	0	2.7488590E-005
6.077999846456805E+001	9.3891853E-003	-5.4094181E+000	0	2.7488590E-005
6.078899846434069E+001	9.4655352E-003	-5.3591199E+000	0	2.7488590E-005
6.079799846411333E+001	9.5418841E-003	-5.3081841E+000	0	4.6574281E-005
6.080719846388092E+001	9.3891853E-003	-5.2540650E+000	0	4.6574281E-005
6.081739846362325E+001	9.4082728E-003	-5.2018566E+000	0	8.4745661E-005
6.082639846339589E+001	9.4846217E-003	-5.1502843E+000	0	8.4745661E-005
6.083579846315843E+001	9.3510114E-003	-5.0974388E+000	0	2.7488590E-005
6.084599846290075E+001	9.3891853E-003	-5.0426836E+000	0	-6.7939873E-005
6.085579846265318E+001	9.5037092E-003	-4.9911113E+000	0	-1.0682794E-005
6.086719846236520E+001	9.4846217E-003	-4.9376287E+000	0	8.4028979E-006
6.087899846206710E+001	9.3700988E-003	-4.8809633E+000	0	-1.0682794E-005
6.089079846176901E+001	9.3891853E-003	-4.8306646E+000	0	4.6574281E-005
6.090059846152144E+001	9.4082728E-003	-4.7803664E+000	0	-2.9768486E-005
6.091299846120819E+001	9.4655352E-003	-4.7281570E+000	0	1.6108842E-004
6.092439846092020E+001	9.3891853E-003	-4.6772223E+000	0	1.0383136E-004
6.093599846062716E+001	9.4655352E-003	-4.6243763E+000	0	1.2291704E-004
6.094899846029875E+001	9.4464477E-003	-4.5734410E+000	0	4.6574281E-005
6.096179845997540E+001	9.4082728E-003	-4.5180483E+000	0	-4.8854177E-005
6.100459845889418E+001	9.3700988E-003	-4.3655238E+000	0	4.6574281E-005
6.101799845855567E+001	9.4655352E-003	-4.3154521E+000	0	-2.9768486E-005
6.103179845820705E+001	9.3510114E-003	-4.2653809E+000	0	-1.0682794E-005
6.104639845783822E+001	9.3700988E-003	-4.2143550E+000	0	8.4028979E-006
6.106119845746434E+001	9.5609706E-003	-4.1635833E+000	0	6.5659973E-005
6.107639845708036E+001	9.5037092E-003	-4.1130028E+000	0	6.5659973E-005
6.109199845668627E+001	9.3891853E-003	-4.0627403E+000	0	6.5659973E-005
6.110779845628713E+001	9.4655352E-003	-4.0127325E+000	0	1.2291704E-004
6.112419845587283E+001	9.4082728E-003	-3.9621518E+000	0	1.2291704E-004
6.114099845544843E+001	9.5037092E-003	-3.9120164E+000	0	6.5659973E-005
6.115839845500886E+001	9.3319239E-003	-3.8613083E+000	0	1.2291704E-004
6.117619845455920E+001	9.4655352E-003	-3.8109188E+000	0	8.4028979E-006
6.119439845409943E+001	9.3700988E-003	-3.7607837E+000	0	-8.7025561E-005
6.121319845362450E+001	9.3891853E-003	-3.7105210E+000	0	8.4028979E-006
6.123299845312431E+001	9.4655352E-003	-3.6592410E+000	0	-8.7025561E-005
6.125299845261907E+001	9.4464477E-003	-3.6090422E+000	0	-1.2519695E-004
6.127379845209362E+001	9.3700988E-003	-3.5588434E+000	0	8.4028979E-006
6.129499845155806E+001	9.4464477E-003	-3.5086443E+000	0	6.5659973E-005
6.131659845101240E+001	9.3891853E-003	-3.4586365E+000	0	4.6574281E-005
6.133959845043137E+001	9.4082728E-003	-3.4078650E+000	0	-1.0611126E-004
6.136279844984529E+001	9.4464477E-003	-3.3578570E+000	0	2.7488590E-005
6.138699844923394E+001	9.4655352E-003	-3.3077221E+000	0	-2.9768486E-005
6.141179844860744E+001	9.4846217E-003	-3.2576501E+000	0	8.4745661E-005
6.143779844795063E+001	9.5037092E-003	-3.2070060E+000	0	-6.7939873E-005
6.146439844727865E+001	9.4655352E-003	-3.1558530E+000	0	6.5659973E-005
6.149279844656121E+001	9.5418841E-003	-3.1052091E+000	0	6.5659973E-005
6.152179844582861E+001	9.3700988E-003	-3.0548828E+000	0	1.0383136E-004
6.155139844508085E+001	9.3510114E-003	-3.0046206E+000	0	8.4745661E-005
6.158239844429772E+001	9.5037092E-003	-2.9546125E+000	0	-6.7939873E-005
6.161419844349439E+001	9.4655352E-003	-2.9039686E+000	0	8.4028979E-006
6.164799844264053E+001	9.5609706E-003	-2.8537056E+000	0	4.6574281E-005
6.168259844176646E+001	9.4273603E-003	-2.8032525E+000	0	6.5659973E-005
6.171899844084692E+001	9.4273603E-003	-2.7530537E+000	0	2.7488590E-005
6.175659843989706E+001	9.4082728E-003	-2.7030458E+000	0	2.7488590E-005
6.179599843890173E+001	9.5418841E-003	-2.6528468E+000	0	6.5659973E-005
6.183659843787609E+001	9.4655352E-003	-2.6023936E+000	0	-2.9768486E-005
6.187939843679487E+001	9.3891853E-003	-2.5518131E+000	0	8.4745661E-005
6.192399843566818E+001	9.4655352E-003	-2.5016778E+000	0	-2.9768486E-005
6.197079843448591E+001	9.3128365E-003	-2.4512248E+000	0	6.5659973E-005
6.201979843324807E+001	9.3700988E-003	-2.4012167E+000	0	8.4745661E-005
6.207039843196981E+001	9.3510114E-003	-2.3510180E+000	0	4.6574281E-005
6.212499843059049E+001	9.3510114E-003	-2.3008192E+000	0	1.9925981E-004
6.218179842915561E+001	9.5037092E-003	-2.2506201E+000	0	1.2291704E-004
6.223999842768535E+001	9.4464477E-003	-2.2003577E+000	0	2.7488590E-005
6.230359842607868E+001	9.3510114E-003	-2.1500952E+000	0	2.7488590E-005
6.236839842444169E+001	9.3891853E-003	-2.1000874E+000	0	1.2291704E-004
6.243879842266324E+001	9.4273603E-003	-2.0500157E+000	0	-4.8854177E-005
6.251219842080900E+001	9.4464477E-003	-2.0000076E+000	0	1.2291704E-004
6.258959841885371E+001	9.3700988E-003	-1.9496818E+000	0	8.4028979E-006
6.267219841676706E+001	9.4082728E-003	-1.8996102E+000	0	8.4745661E-005
6.275999841454905E+001	9.4464477E-003	-1.8495386E+000	0	1.2291704E-004
6.285179841222998E+001	9.3510114E-003	-1.7990854E+000	0	8.4028979E-006
6.295179840970377E+001	9.4082728E-003	-1.7490135E+000	0	-1.0682794E-005
6.305659840705630E+001	9.3891853E-003	-1.6990056E+000	0	8.4745661E-005
6.317039840418147E+001	9.5037092E-003	-1.6489978E+000	0	8.4028979E-006
6.329119840112980E+001	9.4273603E-003	-1.5983536E+000	0	-4.8854177E-005
6.342279839780531E+001	9.3700988E-003	-1.5483457E+000	0	-4.8854177E-005
6.356419839423324E+001	9.3700988E-003	-1.4983379E+000	0	1.0383136E-004
6.371219839049445E+001	9.3891853E-003	-1.4481390E+000	0	-1.0682794E-005
6.387739838632115E+001	9.4464477E-003	-1.3980036E+000	0	-4.8854177E-005
6.405479838183965E+001	9.4464477E-003	-1.3478049E+000	0	8.4745661E-005
6.424959837691858E+001	9.3700988E-003	-1.2977970E+000	0	8.4745661E-005
6.445839837164385E+001	9.4273603E-003	-1.2474710E+000	0	-1.0682794E-005
6.469579836564662E+001	9.4082728E-003	-1.1974630E+000	0	4.6574281E-005
6.495079835920478E+001	9.4655352E-003	-1.1472641E+000	0	2.7488590E-005
6.522679835223244E+001	9.4464477E-003	-1.0966200E+000	0	8.4028979E-006
6.553799834437086E+001	9.4082728E-003	-1.0465485E+000	0	8.4028979E-006
6.588979833548365E+001	9.4082728E-003	-9.9634951E-001	0	-1.0682794E-005
6.628079832560616E+001	9.3510114E-003	-9.4615066E-001	0	2.7488590E-005
6.671879831454135E+001	9.3891853E-003	-8.9614272E-001	0	4.6574281E-005
6.721959830189007E+001	9.3700988E-003	-8.4613478E-001	0	1.4200274E-004
6.778919828750077E+001	9.4082728E-003	-7.9593599E-001	0	1.6108842E-004
6.845659827064082E+001	9.4082728E-003	-7.4560994E-001	0	-1.0682794E-005
6.924299825077469E+001	9.3510114E-003	-6.9534749E-001	0	6.5659973E-005
7.016079822758911E+001	9.3319239E-003	-6.4521235E-001	0	8.4745661E-005
7.126979819957342E+001	9.3891853E-003	-5.9514076E-001	0	1.8017412E-004
7.262599816531292E+001	9.4846217E-003	-5.4506916E-001	0	-1.0682794E-005
7.431599812261993E+001	9.4273603E-003	-4.9506122E-001	0	4.6574281E-005
7.653439806657843E+001	9.3700988E-003	-4.4503328E-001	0	4.6574281E-005
7.935959799520788E+001	9.4082728E-003	-3.9499119E-001	0	2.7488590E-005
8.316919789896929E+001	9.4464477E-003	-3.4496188E-001	0	-1.0682794E-005
8.858139776224562E+001	9.4082728E-003	-2.9493257E-001	0	2.7488590E-005
9.678419755502546E+001	9.5037092E-003	-2.4489689E-001	0	-4.8854177E-005
1.067841973024042E+002	9.4464477E-003	-2.0501854E-001	0	-8.7025561E-005
1.167841970497830E+002	9.3510114E-003	-1.7795141E-001	0	1.2291704E-004
1.267841967971617E+002	9.3510114E-003	-1.5762402E-001	0	2.7488590E-005
1.367841965445405E+002	9.4846217E-003	-1.4145884E-001	0	8.4028979E-006
1.467841962919192E+002	9.4846217E-003	-1.2863488E-001	0	-4.8854177E-005
1.567841960392980E+002	9.4273603E-003	-1.1798114E-001	0	8.4028979E-006
1.667841957866767E+002	9.4655352E-003	-1.0879754E-001	0	8.4028979E-006
1.767841955340555E+002	9.4082728E-003	-1.0061949E-001	0	4.6574281E-005
1.867841952814342E+002	9.4655352E-003	-9.3612455E-002	0	8.4745661E-005
1.967841950288130E+002	9.4655352E-003	-8.8521056E-002	0	8.4028979E-006
2.067841947761917E+002	9.4082728E-003	-8.3404206E-002	0	8.4028979E-006
2.167841945235705E+002	9.3891853E-003	-7.8987420E-002	0	8.4028979E-006
2.267841942709492E+002	9.3510114E-003	-7.4914314E-002	0	-1.0682794E-005
2.367841940183280E+002	9.3128365E-003	-7.0713915E-002	0	1.4200274E-004
2.467841937657067E+002	9.4655352E-003	-6.7722715E-002	0	-2.9768486E-005
2.567841935130855E+002	9.5037092E-003	-6.4222381E-002	0	1.0383136E-004
2.667841932604642E+002	9.3510114E-003	-6.1422110E-002	0	-6.7939873E-005
2.767841930078430E+002	9.4273603E-003	-5.9169170E-002	0	1.0383136E-004
2.867841927552217E+002	9.3891853E-003	-5.6636203E-002	0	-4.8854177E-005
2.967841925026005E+002	9.4846217E-003	-5.4364171E-002	0	-2.9768486E-005
3.067841922499792E+002	9.3510114E-003	-5.2454896E-002	0	8.4028979E-006
3.167841919973580E+002	9.3891853E-003	-5.0265595E-002	0	8.4028979E-006
3.267841917447367E+002	9.4846217E-003	-4.8318136E-002	0	1.6108842E-004
3.367841914921155E+002	9.4464477E-003	-4.6688884E-002	0	1.6108842E-004
3.467841912394942E+002	9.4464477E-003	-4.5129649E-002	0	4.6574281E-005
3.567841909868730E+002	9.4655352E-003	-4.3740310E-002	0	-1.2519695E-004
3.667841907342518E+002	9.4082728E-003	-4.2312544E-002	0	6.5659973E-005
3.767841904816305E+002	9.4464477E-003	-4.1014574E-002	0	-1.0682794E-005
3.867841902290093E+002	9.3510114E-003	-3.9703246E-002	0	2.7488590E-005
3.967841899763880E+002	9.2937499E-003	-3.8696688E-002	0	6.5659973E-005
4.067841897237668E+002	9.4464477E-003	-3.7503067E-002	0	1.2291704E-004
4.167841894711455E+002	9.4846217E-003	-3.6637116E-002	0	4.6574281E-005
4.267841892185243E+002	9.3510114E-003	-3.5535753E-002	0	-1.2519695E-004
4.367841889659030E+002	9.3891853E-003	-3.4681898E-002	0	8.4745661E-005
4.467841887132818E+002	9.4464477E-003	-3.3830583E-002	0	4.6574281E-005
4.567841884606605E+002	9.3891853E-003	-3.3103339E-002	0	-1.0682794E-005
4.667841882080393E+002	9.4082728E-003	-3.2523070E-002	0	6.5659973E-005
4.767841879554180E+002	9.3700988E-003	-3.1806644E-002	0	2.7488590E-005
4.867841877027968E+002	9.4273603E-003	-3.0913338E-002	0	6.5659973E-005
4.967841874501755E+002	9.3891853E-003	-3.0351521E-002	0	1.0383136E-004
5.067841871975543E+002	9.5037092E-003	-2.9745804E-002	0	-6.7939873E-005
5.167841869449330E+002	9.3700988E-003	-2.9107638E-002	0	2.7488590E-005
5.267841866923118E+002	9.4655352E-003	-2.8692160E-002	0	8.4745661E-005
5.367841864396905E+002	9.3319239E-003	-2.8089622E-002	0	8.4745661E-005
5.467841861870693E+002	9.3510114E-003	-2.7567890E-002	0	-6.7939873E-005
5.567841859344480E+002	9.4464477E-003	-2.7076062E-002	0	8.4745661E-005
5.667841856818268E+002	9.3891853E-003	-2.6670130E-002	0	8.4028979E-006
5.767841854292055E+002	9.4846217E-003	-2.6224112E-002	0	-6.7939873E-005
5.867841851765843E+002	9.4082728E-003	-2.5807364E-002	0	6.5659973E-005
5.967841849239630E+002	9.3700988E-003	-2.5426243E-002	0	8.4028979E-006
6.067841846713418E+002	9.5037092E-003	-2.5063578E-002	0	4.6574281E-005
6.167841844187205E+002	9.4273603E-003	-2.4569204E-002	0	8.4028979E-006
6.267841841660993E+002	9.3319239E-003	-2.4298793E-002	0	2.7488590E-005
6.367841839134780E+002	9.4464477E-003	-2.3974301E-002	0	4.6574281E-005
6.467841836608568E+002	9.4655352E-003	-2.3599546E-002	0	8.4745661E-005
6.567841834082355E+002	9.3128365E-003	-2.3320865E-002	0	1.2291704E-004
6.667841831556143E+002	9.4846217E-003	-2.3018643E-002	0	-2.9768486E-005
6.767841829029931E+002	9.3700988E-003	-2.2839217E-002	0	-6.7939873E-005
6.867841826503718E+002	9.3891853E-003	-2.2453008E-002	0	2.7488590E-005
6.967841823977506E+002	9.4464477E-003	-2.2285035E-002	0	-8.7025561E-005
7.067841821451293E+002	9.3891853E-003	-2.1999355E-002	0	-2.9768486E-005
7.167841818925081E+002	9.3891853E-003	-2.1730218E-002	0	8.4028979E-006
7.267841816398868E+002	9.4273603E-003	-2.1522162E-002	0	6.5659973E-005
7.367841813872656E+002	9.5227966E-003	-2.1218030E-002	0	8.4745661E-005
7.467841811346443E+002	9.4273603E-003	-2.1008065E-002	0	1.8017412E-004
7.567841808820231E+002	9.4464477E-003	-2.0911990E-002	0	4.6574281E-005
7.667841806294018E+002	9.4082728E-003	-2.0651123E-002	0	-1.0682794E-005
7.767841803767806E+002	9.4655352E-003	-2.0382622E-002	0	8.4028979E-006
7.867841801241593E+002	9.3891853E-003	-2.0274458E-002	0	8.4028979E-006
7.967841798715381E+002	9.4082728E-003	-2.0016138E-002	0	-1.0611126E-004
8.067841796189168E+002	9.4082728E-003	-1.9892067E-002	0	6.5659973E-005
8.167841793662956E+002	9.3510114E-003	-1.9475317E-002	0	-1.0682794E-005
8.267841791136743E+002	9.4655352E-003	-1.9503947E-002	0	1.4200274E-004
8.367841788610531E+002	9.4082728E-003	-1.9194091E-002	0	2.7488590E-005
8.467841786084318E+002	9.4082728E-003	-1.9187728E-002	0	-1.0682794E-005
8.567841783558106E+002	9.4846217E-003	-1.8979035E-002	0	-1.0682794E-005
8.667841781031893E+002	9.3510114E-003	-1.8713716E-002	0	6.5659973E-005
8.767841778505681E+002	9.4082728E-003	-1.8518385E-002	0	-1.0682794E-005
8.867841775979468E+002	9.4082728E-003	-1.8473845E-002	0	-6.7939873E-005
8.967841773453256E+002	9.4655352E-003	-1.8184349E-002	0	-1.2519695E-004
9.067841770927043E+002	9.4082728E-003	-1.8205347E-002	0	4.6574281E-005
9.167841768400831E+002	9.5227966E-003	-1.8024012E-002	0	1.2291704E-004
9.267841765874618E+002	9.3510114E-003	-1.7996015E-002	0	8.4028979E-006
9.367841763348406E+002	9.3319239E-003	-1.7744694E-002	0	2.7488590E-005
9.467841760822193E+002	9.3510114E-003	-1.7561451E-002	0	-2.9768486E-005
9.567841758295981E+002	9.3700988E-003	-1.7422110E-002	0	8.4028979E-006
9.667841755769769E+002	9.3891853E-003	-1.7325401E-002	0	2.7488590E-005
9.767841753243556E+002	9.4273603E-003	-1.7316492E-002	0	6.5659973E-005
9.867841750717344E+002	9.3891853E-003	-1.7096346E-002	0	8.4745661E-005
9.967841748191131E+002	9.4464477E-003	-1.7008543E-002	0	-1.0682794E-005
1.006784174566492E+003	9.4082728E-003	-1.6776944E-002	0	8.4028979E-006
1.016784174313871E+003	9.4655352E-003	-1.6787762E-002	0	8.4745661E-005
1.026784174061249E+003	9.4464477E-003	-1.6663056E-002	0	8.4745661E-005
1.036784173808628E+003	9.3128365E-003	-1.6643967E-002	0	6.5659973E-005
1.046784173556007E+003	9.2555750E-003	-1.6505899E-002	0	6.5659973E-005
1.056784173303386E+003	9.4464477E-003	-1.6371647E-002	0	-4.8854177E-005
1.066784173050764E+003	9.3700988E-003	-1.6232943E-002	0	-2.9768486E-005
1.076784172798143E+003	9.4082728E-003	-1.6117781E-002	0	4.6574281E-005
1.086784172545522E+003	9.4464477E-003	-1.6050339E-002	0	8.4028979E-006
1.096784172292901E+003	9.4464477E-003	-1.5858188E-002	0	2.7488590E-005
1.106784172040279E+003	9.5609706E-003	-1.5887454E-002	0	1.8017412E-004
1.116784171787658E+003	9.3700988E-003	-1.5718848E-002	0	-4.8854177E-005
1.126784171535037E+003	9.4464477E-003	-1.5685763E-002	0	-2.9768486E-005
1.136784171282416E+003	9.4082728E-003	-1.5657131E-002	0	-8.7025561E-005
1.146784171029794E+003	9.4082728E-003	-1.5559782E-002	0	-2.9768486E-005
1.156784170777173E+003	9.4846217E-003	-1.5527970E-002	0	8.4028979E-006
1.166784170524552E+003	9.3891853E-003	-1.5339636E-002	0	4.6574281E-005
1.176784170271931E+003	9.4464477E-003	-1.5311641E-002	0	-1.0611126E-004
1.186784170019309E+003	9.3891853E-003	-1.5268376E-002	0	8.4028979E-006
1.196784169766688E+003	9.4464477E-003	-1.5124581E-002	0	4.6574281E-005
1.206784169514067E+003	9.4082728E-003	-1.5006874E-002	0	-1.0682794E-005
1.216784169261446E+003	9.4464477E-003	-1.4978243E-002	0	1.4200274E-004
1.226784169008824E+003	9.4464477E-003	-1.4901890E-002	0	-2.9768486E-005
1.236784168756203E+003	9.3319239E-003	-1.4728193E-002	0	6.5659973E-005
1.246784168503582E+003	9.4464477E-003	-1.4735828E-002	0	6.5659973E-005
1.256784168250961E+003	9.4655352E-003	-1.4523954E-002	0	2.7488590E-005
1.266784167998339E+003	9.4464477E-003	-1.4632753E-002	0	2.7488590E-005
1.276784167745718E+003	9.3891853E-003	-1.4460964E-002	0	1.2291704E-004
1.286784167493097E+003	9.4464477E-003	-1.4496594E-002	0	2.7488590E-005
1.296784167240476E+003	9.4273603E-003	-1.4440603E-002	0	1.4200274E-004
1.306784166987854E+003	9.4082728E-003	-1.4254817E-002	0	8.4745661E-005
1.316784166735233E+003	9.3891853E-003	-1.4305716E-002	0	-1.4428265E-004
1.326784166482612E+003	9.4082728E-003	-1.4137108E-002	0	4.6574281E-005
1.336784166229991E+003	9.5227966E-003	-1.4130110E-002	0	1.4200274E-004
1.346784165977369E+003	9.2364876E-003	-1.4034670E-002	0	1.2291704E-004
1.356784165724748E+003	9.4464477E-003	-1.4020672E-002	0	1.0383136E-004
1.366784165472127E+003	9.3510114E-003	-1.3931597E-002	0	1.0383136E-004
1.376784165219506E+003	9.4082728E-003	-1.3977407E-002	0	8.4745661E-005
1.386784164966884E+003	9.4464477E-003	-1.3839976E-002	0	4.6574281E-005
1.396784164714263E+003	9.4082728E-003	-1.3766170E-002	0	4.6574281E-005
1.406784164461642E+003	9.3510114E-003	-1.3660551E-002	0	-6.7939873E-005
1.416784164209021E+003	9.4082728E-003	-1.3637646E-002	0	1.0383136E-004
1.426784163956399E+003	9.3510114E-003	-1.3589926E-002	0	8.4028979E-006
1.436784163703778E+003	9.3891853E-003	-1.3625556E-002	0	8.4028979E-006
1.446784163451157E+003	9.3319239E-003	-1.3451857E-002	0	-4.8854177E-005
1.456784163198536E+003	9.4464477E-003	-1.3468401E-002	0	-1.0682794E-005
1.466784162945914E+003	9.4655352E-003	-1.3480489E-002	0	2.7488590E-005
1.476784162693293E+003	9.3510114E-003	-1.3306155E-002	0	8.4028979E-006
1.486784162440672E+003	9.4464477E-003	-1.3332241E-002	0	-2.9768486E-005
1.496784162188051E+003	9.4846217E-003	-1.3290249E-002	0	8.4745661E-005
1.506784161935429E+003	9.4082728E-003	-1.3119731E-002	0	8.4028979E-006
1.516784161682808E+003	9.3891853E-003	-1.3175085E-002	0	6.5659973E-005
1.526784161430187E+003	9.4082728E-003	-1.3142636E-002	0	1.2291704E-004
1.536784161177566E+003	9.4846217E-003	-1.3171268E-002	0	1.2291704E-004
1.546784160924944E+003	9.3700988E-003	-1.3037654E-002	0	-2.9768486E-005
1.556784160672323E+003	9.3128365E-003	-1.3038926E-002	0	2.7488590E-005
1.566784160419702E+003	9.3891853E-003	-1.3015384E-002	0	6.5659973E-005
1.576784160167081E+003	9.3700988E-003	-1.2858229E-002	0	6.5659973E-005
1.586784159914459E+003	9.5037092E-003	-1.2926945E-002	0	-8.7025561E-005
1.596784159661838E+003	9.3891853E-003	-1.2895769E-002	0	2.7488590E-005
1.606784159409217E+003	9.3510114E-003	-1.2816234E-002	0	1.0383136E-004
1.616784159156596E+003	9.5227966E-003	-1.2727795E-002	0	-2.9768486E-005
1.626784158903974E+003	9.3128365E-003	-1.2722069E-002	0	1.2291704E-004
1.636784158651353E+003	9.4846217E-003	-1.2670533E-002	0	-2.9768486E-005
1.646784158398732E+003	9.3891853E-003	-1.2620268E-002	0	8.4028979E-006
1.656784158146111E+003	9.3700988E-003	-1.2682620E-002	0	-6.7939873E-005
1.666784157893489E+003	9.4464477E-003	-1.2550279E-002	0	1.2291704E-004
1.676784157640868E+003	9.3891853E-003	-1.2463112E-002	0	8.4028979E-006
1.686784157388247E+003	9.5037092E-003	-1.2489199E-002	0	-6.7939873E-005
1.696784157135626E+003	9.3700988E-003	-1.2465657E-002	0	-8.7025561E-005
1.706784156883004E+003	9.4464477E-003	-1.2404576E-002	0	2.7488590E-005
1.716784156630383E+003	9.4655352E-003	-1.2319954E-002	0	2.7488590E-005
1.726784156377762E+003	9.4846217E-003	-1.2300866E-002	0	4.6574281E-005
1.736784156125141E+003	9.3700988E-003	-1.2410940E-002	0	1.8017412E-004
1.746784155872519E+003	9.3891853E-003	-1.2250602E-002	0	-1.0682794E-005
1.756784155619898E+003	9.5037092E-003	-1.2172978E-002	0	8.4745661E-005
1.766784155367277E+003	9.4082728E-003	-1.2106171E-002	0	8.4745661E-005
1.776784155114656E+003	9.3891853E-003	-1.2123350E-002	0	2.7488590E-005
1.786784154862034E+003	9.4464477E-003	-1.2135440E-002	0	1.0383136E-004
1.796784154609413E+003	9.4846217E-003	-1.1968103E-002	0	6.5659973E-005
1.806784154356792E+003	9.4846217E-003	-1.1953469E-002	0	-2.9768486E-005
1.816784154104171E+003	9.3891853E-003	-1.2070541E-002	0	4.6574281E-005
1.826784153851549E+003	9.4082728E-003	-1.1878391E-002	0	8.4028979E-006
1.836784153598928E+003	9.4655352E-003	-1.1886027E-002	0	2.7488590E-005
1.846784153346307E+003	9.3891853E-003	-1.1768955E-002	0	1.0383136E-004
1.856784153093686E+003	9.4464477E-003	-1.1805858E-002	0	-1.0611126E-004
1.860052753011114E+003	9.4273603E-003	-1.1798858E-002	0	1.6108842E-004