time/s	Ewe/V	I/mA	error	
1.843219953436346E+001	1.4601467E-002	-2.5020937E-002	0
1.849419953279721E+001	8.7215006E-003	-3.7145996E-001	0
1.850079953263048E+001	8.6642280E-003	-3.6626017E-001	0
1.850739953246375E+001	8.7024095E-003	-3.6107945E-001	0
1.851379953230207E+001	8.6642280E-003	-3.5585421E-001	0
1.852159953210503E+001	8.7787723E-003	-3.5060981E-001	0
1.852939953190798E+001	8.7596821E-003	-3.4546095E-001	0
1.853619953173620E+001	8.7024095E-003	-3.4038845E-001	0
1.854839953142800E+001	8.8169547E-003	-3.3492771E-001	0
1.856079953111475E+001	8.6833183E-003	-3.2947963E-001	0
1.857819953067519E+001	8.8742264E-003	-3.2440716E-001	0
1.858839953041752E+001	8.6833183E-003	-3.1927100E-001	0
1.860879952990217E+001	8.8169547E-003	-3.1418571E-001	0
1.863379952927062E+001	8.8169547E-003	-3.0901137E-001	0
1.865519952873001E+001	8.7024095E-003	-3.0399615E-001	0
1.869399952774984E+001	8.7405909E-003	-2.9854810E-001	0
1.874159952654736E+001	8.6260466E-003	-2.9336104E-001	0
1.880039952506195E+001	8.7596821E-003	-2.8833306E-001	0
1.887459952318750E+001	8.7787723E-003	-2.8306323E-001	0
1.906139951846853E+001	8.7215006E-003	-2.7795890E-001	0
1.953539950649429E+001	8.5496828E-003	-2.8327328E-001	0
1.983719949887018E+001	8.6069554E-003	-2.8842854E-001	0
2.014819949101366E+001	8.7787723E-003	-2.9344377E-001	0
2.037559948526905E+001	8.5878652E-003	-2.9846537E-001	0
2.060179947955476E+001	8.8169547E-003	-3.0358246E-001	0
2.089659947210748E+001	8.6642280E-003	-3.0908138E-001	0
2.118159946490778E+001	8.6069554E-003	-3.1408387E-001	0
2.137279946007766E+001	8.6260466E-003	-3.1925189E-001	0
2.166799945262028E+001	8.6451368E-003	-3.2426712E-001	0
2.191579944636032E+001	8.7024095E-003	-3.2938418E-001	0
2.200019944422820E+001	8.6642280E-003	-3.3445668E-001	0
2.233039943588665E+001	8.7024095E-003	-3.3964378E-001	0
2.252179943105148E+001	8.7024095E-003	-3.4491995E-001	0
2.294899942025950E+001	8.6642280E-003	-3.4999248E-001	0
2.317539941454015E+001	8.7978635E-003	-3.5547867E-001	0
2.369659940137353E+001	8.7405909E-003	-3.6059576E-001	0
2.409479939131415E+001	8.6833183E-003	-3.6573189E-001	0
2.456759937937022E+001	8.6451368E-003	-3.7080446E-001	0
2.532639936020132E+001	8.7978635E-003	-3.7585148E-001	0
2.548299935624527E+001	8.7405909E-003	-3.8086674E-001	0
2.606919934143662E+001	8.7024095E-003	-3.8613018E-001	0
2.688859932073683E+001	8.6260466E-003	-3.9124727E-001	0
2.822839928689064E+001	8.6451368E-003	-3.9635161E-001	0
2.881299927212240E+001	8.5687740E-003	-4.0136048E-001	0
2.910939926463470E+001	8.6260466E-003	-3.9628798E-001	0
2.917959926286130E+001	8.7024095E-003	-4.0140504E-001	0
2.991779924421280E+001	8.6451368E-003	-3.9623708E-001	0
3.140419920666318E+001	8.6833183E-003	-3.9120910E-001	0
3.232299918345234E+001	8.7405909E-003	-3.8620657E-001	0
3.235959918252775E+001	8.6260466E-003	-3.9122820E-001	0
3.239059918174462E+001	8.6833183E-003	-3.8599655E-001	0
3.354279915263760E+001	8.7215006E-003	-3.8095585E-001	0
3.473079912262619E+001	8.8169547E-003	-3.7592155E-001	0
3.548119910366950E+001	8.8742264E-003	-3.7054351E-001	0
3.549079910342698E+001	8.7405909E-003	-3.7554601E-001	0
3.560999910041573E+001	8.6069554E-003	-3.7043530E-001	0
3.566559909901116E+001	8.6833183E-003	-3.7550145E-001	0
3.567539909876359E+001	8.6069554E-003	-3.7035254E-001	0
3.685819906888355E+001	8.7024095E-003	-3.6534369E-001	0
3.753919905168004E+001	8.7405909E-003	-3.6016935E-001	0
3.865819902341173E+001	8.6833183E-003	-3.5514137E-001	0
3.987159899275866E+001	8.7024095E-003	-3.5005611E-001	0
4.062359897376155E+001	8.7596821E-003	-3.4442350E-001	0
4.150419895151572E+001	8.6833183E-003	-3.3925554E-001	0
4.227159893212956E+001	8.7596821E-003	-3.3413208E-001	0
4.293059891548182E+001	8.7024095E-003	-3.2884958E-001	0
4.474459886965633E+001	8.7405909E-003	-3.2368159E-001	0
4.563059884727409E+001	8.7787723E-003	-3.1856450E-001	0
4.624059883186419E+001	8.7787723E-003	-3.1312919E-001	0
4.681779881728289E+001	8.7215006E-003	-3.0795485E-001	0
4.740839880236308E+001	8.7024095E-003	-3.0293325E-001	0
4.742919880183763E+001	8.6833183E-003	-3.0812034E-001	0
4.763379879666900E+001	8.5878652E-003	-3.0255777E-001	0
4.764439879640122E+001	8.7024095E-003	-3.0770665E-001	0
4.780879879224813E+001	8.6833183E-003	-3.0267870E-001	0
4.800219878736243E+001	8.6833183E-003	-2.9748526E-001	0
4.801279878709465E+001	8.7024095E-003	-3.0263415E-001	0
4.854899877354910E+001	8.6260466E-003	-2.9737067E-001	0
4.925239875577972E+001	8.7405909E-003	-3.0239862E-001	0
4.931719875414274E+001	8.7215006E-003	-2.9732615E-001	0
5.014099873333180E+001	8.7024095E-003	-2.9216450E-001	0
5.241419867590594E+001	8.7787723E-003	-2.8714928E-001	0
5.533779860204959E+001	8.6069554E-003	-2.8194943E-001	0
5.878339851500641E+001	8.6642280E-003	-2.7644417E-001	0
5.895419851069164E+001	8.5878652E-003	-2.8154212E-001	0
5.907419850766019E+001	8.7024095E-003	-2.7636778E-001	0
5.910559850686695E+001	8.7978635E-003	-2.8139573E-001	0
6.130039845142164E+001	8.6642280E-003	-2.7638051E-001	0
6.423119837738341E+001	8.6833183E-003	-2.7131435E-001	0
6.791499828432279E+001	8.6833183E-003	-2.6604453E-001	0
6.955599824286764E+001	8.6069554E-003	-2.7130163E-001	0
7.260059816595458E+001	8.6069554E-003	-2.6619092E-001	0
7.640019806996861E+001	8.7596821E-003	-2.7121252E-001	0
8.001299797870161E+001	8.7215006E-003	-2.6555449E-001	0
8.088039795678924E+001	8.6260466E-003	-2.7060154E-001	0
8.370399788545910E+001	8.6833183E-003	-2.7578861E-001	0
8.669799780982430E+001	8.7215006E-003	-2.8095022E-001	0
8.922839774590102E+001	8.7024095E-003	-2.7594772E-001	0
8.947839773958549E+001	8.7024095E-003	-2.8108388E-001	0
9.459739761026867E+001	8.8169547E-003	-2.8634733E-001	0
9.933579749056662E+001	8.6451368E-003	-2.9152805E-001	0
1.032547973915644E+002	8.7215006E-003	-2.9654968E-001	0
1.042495973664336E+002	8.7215006E-003	-3.0166036E-001	0
1.052997973399033E+002	8.7024095E-003	-2.9659420E-001	0
1.069839972973568E+002	8.6642280E-003	-2.9134345E-001	0
1.098689972244756E+002	8.8742264E-003	-2.9682332E-001	0
1.175587970302149E+002	8.7215006E-003	-2.9164898E-001	0
1.179229970210145E+002	8.7024095E-003	-2.9677880E-001	0
1.183129970111622E+002	8.7596821E-003	-2.9161078E-001	0
1.184977970064938E+002	8.7024095E-003	-2.9682970E-001	0
1.188531969975156E+002	8.7787723E-003	-2.9171261E-001	0
1.189233969957422E+002	8.6069554E-003	-2.9710338E-001	0
1.190055969936657E+002	8.7787723E-003	-2.9183990E-001	0
1.190901969915285E+002	8.7405909E-003	-2.9686150E-001	0
1.191761969893560E+002	8.7024095E-003	-2.9166171E-001	0
1.192579969872895E+002	8.8360449E-003	-2.9670238E-001	0
1.193517969849199E+002	8.7024095E-003	-2.9157898E-001	0
1.194243969830859E+002	8.6451368E-003	-2.9667056E-001	0
1.195271969804890E+002	8.7405909E-003	-2.9143894E-001	0
1.195663969794987E+002	8.5878652E-003	-2.8609276E-001	0
1.196029969785741E+002	8.8169547E-003	-2.9163626E-001	0
1.196915969763359E+002	8.7978635E-003	-2.8637913E-001	0
1.197639969745069E+002	8.7215006E-003	-2.9150894E-001	0
1.198843969714653E+002	8.7405909E-003	-2.8648734E-001	0
1.199565969696414E+002	8.7024095E-003	-2.9150894E-001	0
1.200549969671556E+002	8.6642280E-003	-2.8650644E-001	0
1.201309969652357E+002	8.7787723E-003	-2.9163626E-001	0
1.202249969628610E+002	8.7215006E-003	-2.8620094E-001	0
1.203027969608956E+002	8.7405909E-003	-2.9134983E-001	0
1.204005969584250E+002	8.6642280E-003	-2.8620729E-001	0
1.204759969565202E+002	8.7596821E-003	-2.9154712E-001	0
1.205939969535393E+002	8.7596821E-003	-2.8651279E-001	0
1.206577969519276E+002	8.7215006E-003	-2.9170623E-001	0
1.207711969490629E+002	8.7215006E-003	-2.8613731E-001	0
1.208527969470015E+002	8.6260466E-003	-2.9127982E-001	0
1.209807969437679E+002	8.7215006E-003	-2.8590181E-001	0
1.210567969418480E+002	8.6451368E-003	-2.9111436E-001	0
1.215053969305154E+002	8.6069554E-003	-2.8608641E-001	0
1.215645969290199E+002	8.7596821E-003	-2.9161716E-001	0
1.217579969241342E+002	8.6833183E-003	-2.8626460E-001	0
1.218159969226690E+002	8.6642280E-003	-2.9189083E-001	0
1.219499969192839E+002	8.7024095E-003	-2.9698882E-001	0
1.220063969178591E+002	8.7215006E-003	-2.9168078E-001	0
1.221089969152672E+002	8.6833183E-003	-2.9702699E-001	0
1.222899969106948E+002	8.7596821E-003	-2.9192266E-001	0
1.224025969078502E+002	8.6260466E-003	-2.9735795E-001	0
1.226195969023684E+002	8.7596821E-003	-2.9221541E-001	0
1.227905968980485E+002	8.5115014E-003	-2.9751068E-001	0
1.229737968934205E+002	8.7596821E-003	-2.9243818E-001	0
1.232081968874991E+002	8.7405909E-003	-2.9747251E-001	0
1.233617968836188E+002	8.7215006E-003	-2.9213905E-001	0
1.234961968802236E+002	8.7787723E-003	-2.9740885E-001	0
1.237733968732209E+002	8.5305925E-003	-2.9227269E-001	0
1.259069968193216E+002	8.7978635E-003	-2.9743430E-001	0
1.289027967436414E+002	8.6642280E-003	-2.9638419E-001	0