time/s	Ewe/V	I/mA	error	Ece/V	
6.005299848293362E+001	2.8969133E+000	-2.5021279E-002	0	-6.3697330E-004
6.017319847989711E+001	9.2435181E-003	-3.2661327E+001	0	-2.6759042E-005
6.017359847988700E+001	9.3389684E-003	-3.2583019E+001	0	-6.4934356E-005
6.017399847987690E+001	9.2435181E-003	-3.2493252E+001	0	1.1416267E-005
6.017439847986680E+001	9.3580587E-003	-3.2413677E+001	0	6.8679226E-005
6.017479847985669E+001	9.2816977E-003	-3.2327732E+001	0	-1.2219732E-004
6.017519847984659E+001	9.1671571E-003	-3.2250698E+001	0	-1.0310966E-004
6.017559847983648E+001	9.3389684E-003	-3.2172390E+001	0	-8.4022009E-005
6.017599847982638E+001	9.3580587E-003	-3.2085804E+001	0	-7.6713877E-006
6.017639847981627E+001	9.3580587E-003	-3.2000496E+001	0	-1.0310966E-004
6.017679847980617E+001	9.2816977E-003	-3.1925373E+001	0	3.0503921E-005
6.017719847979606E+001	9.3007879E-003	-3.1845156E+001	0	-2.6759042E-005
6.017759847978596E+001	9.2816977E-003	-3.1770668E+001	0	6.8679226E-005
6.017799847977585E+001	9.3198782E-003	-3.1693003E+001	0	-1.0310966E-004
6.017839847976575E+001	9.3007879E-003	-3.1615334E+001	0	6.8679226E-005
6.017879847975564E+001	9.2244279E-003	-3.1538298E+001	0	-4.5846697E-005
6.017919847974554E+001	9.2053376E-003	-3.1458721E+001	0	3.0503921E-005
6.017959847973543E+001	9.4153285E-003	-3.1378502E+001	0	1.0685454E-004
6.017999847972533E+001	9.1862474E-003	-3.1308472E+001	0	6.8679226E-005
6.018039847971522E+001	9.2435181E-003	-3.1229528E+001	0	6.8679226E-005
6.018079847970512E+001	9.2435181E-003	-3.1158226E+001	0	6.8679226E-005
6.018119847969501E+001	9.3198782E-003	-3.1080557E+001	0	-7.6713877E-006
6.018159847968491E+001	9.2816977E-003	-3.1007980E+001	0	-4.5846697E-005
6.018199847967480E+001	9.3198782E-003	-3.0935404E+001	0	-6.4934356E-005
6.018239847966470E+001	9.3389684E-003	-3.0860281E+001	0	3.0503921E-005
6.018279847965459E+001	9.1862474E-003	-3.0788340E+001	0	-7.6713877E-006
6.018319847964449E+001	9.3198782E-003	-3.0724039E+001	0	6.8679226E-005
6.018359847963438E+001	9.3198782E-003	-3.0646370E+001	0	1.2594218E-004
6.018399847962428E+001	9.3198782E-003	-3.0571886E+001	0	-2.6759042E-005
6.018439847961417E+001	9.3580587E-003	-3.0499945E+001	0	8.7766879E-005
6.018479847960407E+001	9.3007879E-003	-3.0423548E+001	0	4.9591574E-005
6.018519847959396E+001	9.3962392E-003	-3.0357338E+001	0	3.0503921E-005
6.018559847958386E+001	9.3389684E-003	-3.0290489E+001	0	-2.6759042E-005
6.018599847957375E+001	9.3198782E-003	-3.0217913E+001	0	1.1416267E-005
6.018639847956365E+001	9.2626074E-003	-3.0144701E+001	0	1.1416267E-005
6.018679847955354E+001	9.1289766E-003	-3.0077852E+001	0	4.9591574E-005
6.018719847954344E+001	9.3007879E-003	-3.0009733E+001	0	-7.6713877E-006
6.018759847953334E+001	9.3198782E-003	-2.9950523E+001	0	-7.6713877E-006
6.018799847952323E+001	9.3198782E-003	-2.9874765E+001	0	1.4502984E-004
6.018839847951313E+001	9.2626074E-003	-2.9802824E+001	0	4.9591574E-005
6.018879847950302E+001	9.2816977E-003	-2.9744253E+001	0	1.1416267E-005
6.018919847949292E+001	9.3198782E-003	-2.9669769E+001	0	1.1416267E-005
6.018959847948281E+001	9.3198782E-003	-2.9611198E+001	0	3.0503921E-005
6.018999847947271E+001	9.3198782E-003	-2.9541168E+001	0	-2.6759042E-005
6.019039847946260E+001	9.1862474E-003	-2.9476231E+001	0	3.0503921E-005
6.019079847945250E+001	9.3198782E-003	-2.9404289E+001	0	4.9591574E-005
6.019119847944239E+001	9.2626074E-003	-2.9348902E+001	0	1.0685454E-004
6.019159847943229E+001	9.2816977E-003	-2.9283331E+001	0	4.9591574E-005
6.019199847942218E+001	9.2816977E-003	-2.9215847E+001	0	2.0229281E-004
6.019239847941208E+001	9.2244279E-003	-2.9156641E+001	0	-4.5846697E-005
6.019279847940197E+001	9.3198782E-003	-2.9089792E+001	0	-7.6713877E-006
6.019319847939187E+001	9.3007879E-003	-2.9033133E+001	0	3.0503921E-005
6.019359847938176E+001	9.2816977E-003	-2.8962463E+001	0	4.9591574E-005
6.019399847937166E+001	9.3007879E-003	-2.8900711E+001	0	6.8679226E-005
6.019439847936155E+001	9.3389684E-003	-2.8834501E+001	0	1.1416267E-005
6.019479847935145E+001	9.4153285E-003	-2.8772110E+001	0	1.1416267E-005
6.019519847934134E+001	9.2435181E-003	-2.8717358E+001	0	1.1416267E-005
6.019559847933124E+001	9.2816977E-003	-2.8652424E+001	0	3.0503921E-005
6.019599847932113E+001	9.2816977E-003	-2.8591307E+001	0	8.7766879E-005
6.019639847931103E+001	9.3198782E-003	-2.8528278E+001	0	-6.4934356E-005
6.019679847930092E+001	9.2435181E-003	-2.8474165E+001	0	-6.4934356E-005
6.019719847929082E+001	9.2816977E-003	-2.8407953E+001	0	1.1416267E-005
6.019759847928071E+001	9.4153285E-003	-2.8347471E+001	0	-4.5846697E-005
6.019799847927061E+001	9.2244279E-003	-2.8290176E+001	0	-7.6713877E-006
6.019839847926050E+001	9.2816977E-003	-2.8228420E+001	0	-8.4022009E-005
6.019879847925040E+001	9.3198782E-003	-2.8174946E+001	0	-1.2219732E-004
6.019919847924029E+001	9.2244279E-003	-2.8115099E+001	0	1.1416267E-005
6.019959847923019E+001	9.3007879E-003	-2.8053984E+001	0	3.0503921E-005
6.019999847922008E+001	9.3580587E-003	-2.7997324E+001	0	6.8679226E-005
6.020039847920998E+001	9.3198782E-003	-2.7938114E+001	0	6.8679226E-005
6.020079847919988E+001	9.2816977E-003	-2.7876997E+001	0	-2.6759042E-005
6.020119847918977E+001	9.2816977E-003	-2.7815245E+001	0	3.0503921E-005
6.020179847917461E+001	9.2244279E-003	-2.7734390E+001	0	4.9591574E-005
6.020219847916451E+001	9.3007879E-003	-2.7675819E+001	0	-7.6713877E-006
6.020259847915440E+001	9.3580587E-003	-2.7621706E+001	0	-4.5846697E-005
6.020299847914430E+001	9.2626074E-003	-2.7565042E+001	0	1.2594218E-004
6.020339847913419E+001	9.3007879E-003	-2.7509657E+001	0	1.1416267E-005
6.020379847912409E+001	9.3580587E-003	-2.7456179E+001	0	-4.5846697E-005
6.020419847911398E+001	9.3007879E-003	-2.7396973E+001	0	-7.6713877E-006
6.020479847909883E+001	9.2626074E-003	-2.7307205E+001	0	8.7766879E-005
6.020539847908367E+001	9.4153285E-003	-2.7228264E+001	0	6.8679226E-005
6.020599847906851E+001	9.2816977E-003	-2.7143593E+001	0	1.1416267E-005
6.020639847905841E+001	9.2244279E-003	-2.7087568E+001	0	-8.4022009E-005
6.020699847904325E+001	9.3580587E-003	-2.7012445E+001	0	-2.6759042E-005
6.020739847903315E+001	9.3007879E-003	-2.6958967E+001	0	1.2594218E-004
6.020799847901799E+001	9.2816977E-003	-2.6880659E+001	0	1.1416267E-005
6.020859847900283E+001	9.3007879E-003	-2.6801081E+001	0	3.0503921E-005
6.020899847899273E+001	9.2244279E-003	-2.6743145E+001	0	-4.5846697E-005
6.020939847898262E+001	9.3007879E-003	-2.6687124E+001	0	1.4502984E-004
6.020999847896746E+001	9.3007879E-003	-2.6614548E+001	0	1.1416267E-005
6.021039847895736E+001	9.2435181E-003	-2.6561705E+001	0	-6.4934356E-005
6.021079847894725E+001	9.2626074E-003	-2.6505682E+001	0	-7.6713877E-006
6.021139847893210E+001	9.3198782E-003	-2.6433105E+001	0	1.1416267E-005
6.021199847891694E+001	9.2626074E-003	-2.6363710E+001	0	6.8679226E-005
6.021239847890683E+001	9.2626074E-003	-2.6308960E+001	0	4.9591574E-005
6.021299847889168E+001	9.1862474E-003	-2.6234474E+001	0	-1.2219732E-004
6.021339847888157E+001	9.3198782E-003	-2.6180996E+001	0	-1.0310966E-004
6.021379847887147E+001	9.2626074E-003	-2.6130064E+001	0	-7.6713877E-006
6.021439847885631E+001	9.1862474E-003	-2.6060034E+001	0	1.1416267E-005
6.021479847884621E+001	9.1671571E-003	-2.6005285E+001	0	-1.2219732E-004
6.021539847883105E+001	9.3389684E-003	-2.5928249E+001	0	1.0685454E-004
6.021579847882094E+001	9.3389684E-003	-2.5877954E+001	0	-2.6759042E-005
6.021639847880579E+001	9.3007879E-003	-2.5809198E+001	0	4.9591574E-005
6.021699847879063E+001	9.3389684E-003	-2.5735348E+001	0	3.0503921E-005
6.021759847877547E+001	9.3580587E-003	-2.5665956E+001	0	-1.2219732E-004
6.021819847876031E+001	9.3198782E-003	-2.5586376E+001	0	-2.6759042E-005
6.021879847874516E+001	9.3580587E-003	-2.5520803E+001	0	6.8679226E-005
6.021919847873505E+001	9.1480669E-003	-2.5469236E+001	0	-2.6759042E-005
6.021979847871989E+001	9.3007879E-003	-2.5399841E+001	0	-4.5846697E-005
6.022039847870474E+001	9.2816977E-003	-2.5331722E+001	0	-7.6713877E-006
6.022099847868958E+001	9.3389684E-003	-2.5259146E+001	0	-6.4934356E-005
6.022159847867442E+001	9.2816977E-003	-2.5192932E+001	0	-4.5846697E-005
6.022219847865927E+001	9.3007879E-003	-2.5122267E+001	0	3.0503921E-005
6.022279847864411E+001	9.2816977E-003	-2.5054783E+001	0	-4.5846697E-005
6.022319847863400E+001	9.3580587E-003	-2.5003218E+001	0	-2.6759042E-005
6.022379847861885E+001	9.2816977E-003	-2.4935734E+001	0	-2.6759042E-005
6.022439847860369E+001	9.3962392E-003	-2.4878437E+001	0	1.1416267E-005
6.022479847859358E+001	9.3771489E-003	-2.4826231E+001	0	3.0503921E-005
6.022539847857843E+001	9.2816977E-003	-2.4764479E+001	0	-1.0310966E-004
6.022579847856832E+001	9.3198782E-003	-2.4711637E+001	0	4.9591574E-005
6.022639847855316E+001	9.2435181E-003	-2.4648609E+001	0	-2.6759042E-005
6.022699847853801E+001	9.3962392E-003	-2.4586222E+001	0	-7.6713877E-006
6.022759847852285E+001	9.2816977E-003	-2.4519373E+001	0	-1.2219732E-004
6.022799847851275E+001	9.3771489E-003	-2.4469078E+001	0	6.8679226E-005
6.022859847849759E+001	9.2435181E-003	-2.4407961E+001	0	-2.6759042E-005
6.022919847848243E+001	9.2244279E-003	-2.4344297E+001	0	-2.6759042E-005
6.022979847846727E+001	9.1289766E-003	-2.4279362E+001	0	3.0503921E-005
6.023039847845212E+001	9.2435181E-003	-2.4212515E+001	0	4.9591574E-005
6.023099847843696E+001	9.3198782E-003	-2.4155216E+001	0	4.9591574E-005
6.023159847842180E+001	9.3198782E-003	-2.4087734E+001	0	3.0503921E-005
6.023219847840664E+001	9.3389684E-003	-2.4021523E+001	0	-6.4934356E-005
6.023279847839149E+001	9.2244279E-003	-2.3961040E+001	0	8.7766879E-005
6.023339847837633E+001	9.2435181E-003	-2.3907564E+001	0	1.1416267E-005
6.023379847836623E+001	9.3198782E-003	-2.3856634E+001	0	4.9591574E-005
6.023439847835107E+001	9.3389684E-003	-2.3796154E+001	0	6.8679226E-005
6.023499847833591E+001	9.2816977E-003	-2.3743311E+001	0	3.0503921E-005
6.023559847832075E+001	9.3007879E-003	-2.3675194E+001	0	-6.4934356E-005
6.023619847830560E+001	9.2816977E-003	-2.3613438E+001	0	-7.6713877E-006
6.023679847829044E+001	9.2244279E-003	-2.3556139E+001	0	4.9591574E-005
6.023739847827528E+001	9.3007879E-003	-2.3486748E+001	0	-2.6759042E-005
6.023799847826012E+001	9.3198782E-003	-2.3435179E+001	0	3.0503921E-005
6.023859847824497E+001	9.3007879E-003	-2.3370878E+001	0	-4.5846697E-005
6.023939847822476E+001	9.2244279E-003	-2.3297665E+001	0	-6.4934356E-005
6.023999847820960E+001	9.1671571E-003	-2.3239733E+001	0	4.9591574E-005
6.024059847819444E+001	9.3389684E-003	-2.3176704E+001	0	-1.4128498E-004
6.024119847817929E+001	9.1480669E-003	-2.3125772E+001	0	-7.6713877E-006
6.024179847816413E+001	9.2435181E-003	-2.3064020E+001	0	-7.6713877E-006
6.024239847814897E+001	9.2626074E-003	-2.3006723E+001	0	-6.4934356E-005
6.024299847813381E+001	9.2244279E-003	-2.2956427E+001	0	-8.4022009E-005
6.024359847811866E+001	9.1862474E-003	-2.2893400E+001	0	-4.5846697E-005
6.024419847810350E+001	9.3389684E-003	-2.2837378E+001	0	6.8679226E-005
6.024479847808834E+001	9.2816977E-003	-2.2781353E+001	0	-6.4934356E-005
6.024539847807318E+001	9.3580587E-003	-2.2724056E+001	0	-7.6713877E-006
6.024599847805803E+001	9.3198782E-003	-2.2665485E+001	0	1.1416267E-005
6.024659847804287E+001	9.2244279E-003	-2.2615191E+001	0	8.7766879E-005
6.024719847802771E+001	9.3198782E-003	-2.2558529E+001	0	-4.5846697E-005
6.024779847801256E+001	9.2244279E-003	-2.2499958E+001	0	-2.6759042E-005
6.024839847799740E+001	9.2626074E-003	-2.2448391E+001	0	6.8679226E-005
6.024899847798224E+001	9.2816977E-003	-2.2394278E+001	0	-7.6713877E-006
6.024959847796708E+001	9.3389684E-003	-2.2335070E+001	0	1.1416267E-005
6.025039847794687E+001	9.3007879E-003	-2.2278410E+001	0	-4.5846697E-005
6.025099847793172E+001	9.3580587E-003	-2.2221111E+001	0	-7.6713877E-006
6.025159847791656E+001	9.3389684E-003	-2.2163177E+001	0	-1.6037263E-004
6.025239847789635E+001	9.4344188E-003	-2.2093784E+001	0	3.0503921E-005
6.025299847788119E+001	9.2816977E-003	-2.2035851E+001	0	1.1416267E-005
6.025379847786098E+001	9.2626074E-003	-2.1976643E+001	0	3.0503921E-005
6.025439847784583E+001	9.3198782E-003	-2.1920620E+001	0	-6.4934356E-005
6.025499847783067E+001	9.2053376E-003	-2.1869051E+001	0	3.0503921E-005
6.025559847781551E+001	9.3007879E-003	-2.1818121E+001	0	-4.5846697E-005
6.025639847779530E+001	9.3389684E-003	-2.1744907E+001	0	2.2138045E-004
6.025719847777509E+001	9.3198782E-003	-2.1686975E+001	0	-6.4934356E-005
6.025779847775993E+001	9.2435181E-003	-2.1631586E+001	0	-8.4022009E-005
6.025839847774478E+001	9.2244279E-003	-2.1580654E+001	0	1.0685454E-004
6.025899847772962E+001	9.2244279E-003	-2.1529722E+001	0	-7.6713877E-006
6.025979847770941E+001	9.2435181E-003	-2.1462240E+001	0	-4.5846697E-005
6.026059847768920E+001	9.1480669E-003	-2.1392210E+001	0	-4.5846697E-005
6.026139847766899E+001	9.3007879E-003	-2.1333002E+001	0	4.9591574E-005
6.026219847764878E+001	9.2435181E-003	-2.1272524E+001	0	-2.6759042E-005
6.026279847763362E+001	9.3389684E-003	-2.1216497E+001	0	3.0503921E-005
6.026359847761341E+001	9.1671571E-003	-2.1161110E+001	0	-6.4934356E-005
6.026419847759826E+001	9.2816977E-003	-2.1109543E+001	0	-2.6759042E-005
6.026499847757805E+001	9.1862474E-003	-2.1051609E+001	0	6.8679226E-005
6.026559847756289E+001	9.3007879E-003	-2.0990492E+001	0	-8.4022009E-005
6.026639847754268E+001	9.2626074E-003	-2.0935740E+001	0	-1.0310966E-004
6.026719847752247E+001	9.3007879E-003	-2.0875261E+001	0	-7.6713877E-006
6.026799847750226E+001	9.2816977E-003	-2.0811596E+001	0	-1.0310966E-004
6.026859847748710E+001	9.1862474E-003	-2.0760029E+001	0	6.8679226E-005
6.026939847746689E+001	9.2626074E-003	-2.0704006E+001	0	1.0685454E-004
6.027019847744668E+001	9.3007879E-003	-2.0638430E+001	0	8.7766879E-005
6.027099847742647E+001	9.3198782E-003	-2.0581770E+001	0	1.1416267E-005
6.027179847740626E+001	9.3007879E-003	-2.0518744E+001	0	1.1416267E-005
6.027259847738605E+001	9.2244279E-003	-2.0458899E+001	0	8.7766879E-005
6.027339847736584E+001	9.2816977E-003	-2.0397146E+001	0	-7.6713877E-006
6.027419847734564E+001	9.2244279E-003	-2.0341757E+001	0	-7.6713877E-006
6.027499847732543E+001	9.2816977E-003	-2.0279367E+001	0	6.8679226E-005
6.027579847730522E+001	9.3580587E-003	-2.0224617E+001	0	-7.6713877E-006
6.027659847728501E+001	9.2626074E-003	-2.0169865E+001	0	-7.6713877E-006
6.027739847726480E+001	9.3389684E-003	-2.0109385E+001	0	-1.2219732E-004
6.027819847724459E+001	9.2626074E-003	-2.0051451E+001	0	-2.6759042E-005
6.027899847722438E+001	9.1862474E-003	-1.9995428E+001	0	-4.5846697E-005
6.027979847720417E+001	9.2053376E-003	-1.9945131E+001	0	3.0503921E-005
6.028059847718396E+001	9.3962392E-003	-1.9883379E+001	0	-7.6713877E-006
6.028139847716375E+001	9.2816977E-003	-1.9824808E+001	0	4.9591574E-005
6.028239847713849E+001	9.2244279E-003	-1.9757961E+001	0	3.0503921E-005
6.028319847711828E+001	9.2816977E-003	-1.9705120E+001	0	-1.0310966E-004
6.028399847709807E+001	9.3389684E-003	-1.9642731E+001	0	-7.6713877E-006
6.028479847707786E+001	9.3962392E-003	-1.9590527E+001	0	-6.4934356E-005
6.028559847705765E+001	9.2816977E-003	-1.9539595E+001	0	3.0503921E-005
6.028639847703744E+001	9.1480669E-003	-1.9486118E+001	0	1.1416267E-005
6.028719847701723E+001	9.2435181E-003	-1.9430729E+001	0	-6.4934356E-005
6.028819847699197E+001	9.2244279E-003	-1.9362610E+001	0	8.7766879E-005
6.028919847696670E+001	9.2626074E-003	-1.9297672E+001	0	1.1416267E-005
6.029019847694144E+001	9.2626074E-003	-1.9234009E+001	0	3.0503921E-005
6.029099847692123E+001	9.2816977E-003	-1.9183079E+001	0	1.0685454E-004
6.029179847690102E+001	9.2626074E-003	-1.9130873E+001	0	3.0503921E-005
6.029259847688081E+001	9.3962392E-003	-1.9076122E+001	0	6.8679226E-005
6.029359847685555E+001	9.2626074E-003	-1.9020098E+001	0	6.8679226E-005
6.029439847683534E+001	9.3580587E-003	-1.8962803E+001	0	1.1416267E-005
6.029519847681513E+001	9.3007879E-003	-1.8909325E+001	0	-2.6759042E-005
6.029599847679492E+001	9.3198782E-003	-1.8856482E+001	0	1.1416267E-005
6.029699847676966E+001	9.3007879E-003	-1.8799822E+001	0	-1.6037263E-004
6.029779847674945E+001	9.3198782E-003	-1.8747618E+001	0	1.1416267E-005
6.029879847672419E+001	9.3007879E-003	-1.8684589E+001	0	-4.5846697E-005
6.029979847669892E+001	9.3580587E-003	-1.8623472E+001	0	-1.2219732E-004
6.030079847667366E+001	9.3007879E-003	-1.8557899E+001	0	4.9591574E-005
6.030179847664840E+001	9.3007879E-003	-1.8505697E+001	0	-2.6759042E-005
6.030259847662819E+001	9.2435181E-003	-1.8455400E+001	0	-1.9854793E-004
6.030339847660798E+001	9.3771489E-003	-1.8402561E+001	0	-2.6759042E-005
6.030439847658272E+001	9.3962392E-003	-1.8350357E+001	0	-2.6759042E-005
6.030539847655746E+001	9.2816977E-003	-1.8289877E+001	0	-6.4934356E-005
6.030619847653725E+001	9.3771489E-003	-1.8239580E+001	0	-6.4934356E-005
6.030719847651199E+001	9.3198782E-003	-1.8175282E+001	0	3.0503921E-005
6.030819847648672E+001	9.2244279E-003	-1.8121805E+001	0	-4.5846697E-005
6.030919847646146E+001	9.2435181E-003	-1.8067690E+001	0	-7.6713877E-006
6.031019847643620E+001	9.3771489E-003	-1.8007845E+001	0	-4.5846697E-005
6.031099847641599E+001	9.3771489E-003	-1.7957552E+001	0	-2.6759042E-005
6.031199847639073E+001	9.3389684E-003	-1.7904709E+001	0	1.4502984E-004
6.031299847636546E+001	9.3007879E-003	-1.7848686E+001	0	-2.6759042E-005
6.031399847634020E+001	9.2244279E-003	-1.7790752E+001	0	3.0503921E-005
6.031499847631494E+001	9.3007879E-003	-1.7733454E+001	0	-4.5846697E-005
6.031599847628968E+001	9.2626074E-003	-1.7679976E+001	0	6.8679226E-005
6.031699847626442E+001	9.2816977E-003	-1.7620770E+001	0	-2.6759042E-005
6.031799847623915E+001	9.3198782E-003	-1.7567930E+001	0	-7.6713877E-006
6.031899847621389E+001	9.2244279E-003	-1.7516363E+001	0	3.0503921E-005
6.031999847618863E+001	9.3198782E-003	-1.7455246E+001	0	-2.6759042E-005
6.032119847615832E+001	9.2816977E-003	-1.7399220E+001	0	1.0685454E-004
6.032219847613305E+001	9.2053376E-003	-1.7342560E+001	0	-6.4934356E-005
6.032319847610779E+001	9.2816977E-003	-1.7289719E+001	0	-2.6759042E-005
6.032419847608253E+001	9.3389684E-003	-1.7239426E+001	0	3.0503921E-005
6.032519847605727E+001	9.3389684E-003	-1.7184673E+001	0	-8.4022009E-005
6.032619847603200E+001	9.2626074E-003	-1.7128649E+001	0	-6.4934356E-005
6.032719847600674E+001	9.3580587E-003	-1.7075172E+001	0	3.0503921E-005
6.032839847597643E+001	9.3771489E-003	-1.7011507E+001	0	4.9591574E-005
6.032959847594611E+001	9.2053376E-003	-1.6956120E+001	0	-7.6713877E-006
6.033059847592085E+001	9.2053376E-003	-1.6905827E+001	0	-4.5846697E-005
6.033179847589054E+001	9.2626074E-003	-1.6841524E+001	0	-7.6713877E-006
6.033299847586022E+001	9.2435181E-003	-1.6778500E+001	0	-4.5846697E-005
6.033419847582991E+001	9.3198782E-003	-1.6716110E+001	0	-1.0310966E-004
6.033539847579959E+001	9.2626074E-003	-1.6662632E+001	0	-2.6759042E-005
6.033639847577433E+001	9.2626074E-003	-1.6612335E+001	0	-7.6713877E-006
6.033759847574402E+001	9.2435181E-003	-1.6561405E+001	0	-4.5846697E-005
6.033879847571370E+001	9.2626074E-003	-1.6490101E+001	0	-1.0310966E-004
6.034019847567833E+001	9.2244279E-003	-1.6430258E+001	0	-1.0310966E-004
6.034139847564802E+001	9.2626074E-003	-1.6379965E+001	0	-4.5846697E-005
6.034239847562276E+001	9.3580587E-003	-1.6323938E+001	0	-4.5846697E-005
6.034359847559244E+001	9.3389684E-003	-1.6264095E+001	0	6.8679226E-005
6.034479847556213E+001	9.3580587E-003	-1.6209345E+001	0	6.8679226E-005
6.034619847552676E+001	9.2816977E-003	-1.6150774E+001	0	1.1416267E-005
6.034719847550150E+001	9.2435181E-003	-1.6096659E+001	0	-1.2219732E-004
6.034819847547624E+001	9.2626074E-003	-1.6046366E+001	0	6.8679226E-005
6.034959847544087E+001	9.3389684E-003	-1.5989067E+001	0	-4.5846697E-005
6.035079847541056E+001	9.2244279E-003	-1.5929225E+001	0	-6.4934356E-005
6.035199847538024E+001	9.3198782E-003	-1.5877020E+001	0	-1.0310966E-004
6.035339847534487E+001	9.2626074E-003	-1.5814631E+001	0	-6.4934356E-005
6.035479847530951E+001	9.2816977E-003	-1.5758604E+001	0	-6.4934356E-005
6.035599847527919E+001	9.3771489E-003	-1.5702581E+001	0	-8.4022009E-005
6.035719847524888E+001	9.2435181E-003	-1.5649104E+001	0	-4.5846697E-005
6.035839847521856E+001	9.1289766E-003	-1.5594353E+001	0	4.9591574E-005
6.035959847518825E+001	9.1671571E-003	-1.5540876E+001	0	-2.6759042E-005
6.036079847515794E+001	9.3580587E-003	-1.5486125E+001	0	-1.0310966E-004
6.036219847512257E+001	9.1862474E-003	-1.5432648E+001	0	-7.6713877E-006
6.036339847509225E+001	9.2816977E-003	-1.5378533E+001	0	3.0503921E-005
6.036459847506194E+001	9.3389684E-003	-1.5325055E+001	0	6.8679226E-005
6.036579847503162E+001	9.2435181E-003	-1.5267758E+001	0	1.1416267E-005
6.036739847499121E+001	9.2626074E-003	-1.5207277E+001	0	1.1416267E-005
6.036879847495584E+001	9.3389684E-003	-1.5154437E+001	0	-4.5846697E-005
6.037019847492047E+001	9.1862474E-003	-1.5099686E+001	0	-8.4022009E-005
6.037139847489016E+001	9.3198782E-003	-1.5046207E+001	0	-7.6713877E-006
6.037279847485479E+001	9.2626074E-003	-1.4984455E+001	0	-1.0310966E-004
6.037419847481942E+001	9.2816977E-003	-1.4929067E+001	0	1.1416267E-005
6.037539847478911E+001	9.2435181E-003	-1.4875590E+001	0	8.7766879E-005
6.037699847474869E+001	9.3007879E-003	-1.4817019E+001	0	-4.5846697E-005
6.037839847471332E+001	9.2816977E-003	-1.4764815E+001	0	-6.4934356E-005
6.037979847467795E+001	9.2816977E-003	-1.4705607E+001	0	-4.5846697E-005
6.038119847464259E+001	9.3389684E-003	-1.4647674E+001	0	3.0503921E-005
6.038259847460722E+001	9.3198782E-003	-1.4597380E+001	0	1.2594218E-004
6.038399847457185E+001	9.2816977E-003	-1.4546448E+001	0	1.1416267E-005
6.038539847453649E+001	9.2626074E-003	-1.4492971E+001	0	-1.2219732E-004
6.038679847450112E+001	9.2435181E-003	-1.4436947E+001	0	6.8679226E-005
6.038819847446575E+001	9.2244279E-003	-1.4382833E+001	0	-2.6759042E-005
6.038959847443039E+001	9.3007879E-003	-1.4329355E+001	0	-2.6759042E-005
6.039119847438997E+001	9.2626074E-003	-1.4272694E+001	0	1.1416267E-005
6.039239847435965E+001	9.3198782E-003	-1.4219853E+001	0	1.1416267E-005
6.039379847432429E+001	9.3007879E-003	-1.4167648E+001	0	-7.6713877E-006
6.039539847428387E+001	9.3771489E-003	-1.4117354E+001	0	6.8679226E-005
6.039679847424850E+001	9.3198782E-003	-1.4058784E+001	0	-4.5846697E-005
6.039839847420808E+001	9.3198782E-003	-1.4004034E+001	0	1.1416267E-005
6.039979847417271E+001	9.3198782E-003	-1.3951192E+001	0	-2.6759042E-005
6.040139847413229E+001	9.3580587E-003	-1.3898989E+001	0	1.1416267E-005
6.040279847409693E+001	9.2816977E-003	-1.3846147E+001	0	-2.6759042E-005
6.040419847406156E+001	9.3198782E-003	-1.3793943E+001	0	4.9591574E-005
6.040579847402114E+001	9.3771489E-003	-1.3741101E+001	0	-6.4934356E-005
6.040739847398072E+001	9.2244279E-003	-1.3688898E+001	0	-8.4022009E-005
6.040899847394030E+001	9.2626074E-003	-1.3630963E+001	0	-8.4022009E-005
6.041039847390493E+001	9.3007879E-003	-1.3579395E+001	0	-8.4022009E-005
6.041199847386451E+001	9.3007879E-003	-1.3527192E+001	0	-7.6713877E-006
6.041339847382915E+001	9.2816977E-003	-1.3476898E+001	0	6.8679226E-005
6.041499847378873E+001	9.2816977E-003	-1.3426603E+001	0	4.9591574E-005
6.041659847374831E+001	9.2816977E-003	-1.3371853E+001	0	-1.4128498E-004
6.041799847371294E+001	9.3198782E-003	-1.3319012E+001	0	-7.6713877E-006
6.041979847366747E+001	9.2435181E-003	-1.3266808E+001	0	6.8679226E-005
6.042119847363210E+001	9.1862474E-003	-1.3215240E+001	0	1.1416267E-005
6.042279847359168E+001	9.3007879E-003	-1.3164945E+001	0	1.1416267E-005
6.042459847354621E+001	9.2816977E-003	-1.3111467E+001	0	-7.6713877E-006
6.042619847350579E+001	9.3007879E-003	-1.3054806E+001	0	6.8679226E-005
6.042779847346537E+001	9.2816977E-003	-1.3002603E+001	0	-4.5846697E-005
6.042959847341990E+001	9.2816977E-003	-1.2949761E+001	0	-6.4934356E-005
6.043119847337948E+001	9.2816977E-003	-1.2896921E+001	0	-4.5846697E-005
6.043299847333401E+001	9.3580587E-003	-1.2836440E+001	0	-2.6759042E-005
6.043499847328349E+001	9.2816977E-003	-1.2776597E+001	0	-4.5846697E-005
6.043679847323801E+001	9.2626074E-003	-1.2722483E+001	0	-2.6759042E-005
6.043859847319254E+001	9.3771489E-003	-1.2664548E+001	0	-2.6759042E-005
6.044039847314707E+001	9.2435181E-003	-1.2611708E+001	0	-8.4022009E-005
6.044219847310160E+001	9.3198782E-003	-1.2557592E+001	0	-2.6759042E-005
6.044399847305613E+001	9.3771489E-003	-1.2504753E+001	0	-6.4934356E-005
6.044579847301065E+001	9.2816977E-003	-1.2449366E+001	0	-4.5846697E-005
6.044799847295508E+001	9.2244279E-003	-1.2392068E+001	0	-7.6713877E-006
6.044959847291466E+001	9.3007879E-003	-1.2338590E+001	0	1.1416267E-005
6.045159847286413E+001	9.3962392E-003	-1.2282566E+001	0	-6.4934356E-005
6.045359847281361E+001	9.2244279E-003	-1.2227816E+001	0	8.7766879E-005
6.045539847276814E+001	9.3580587E-003	-1.2176885E+001	0	8.7766879E-005
6.045699847272772E+001	9.3007879E-003	-1.2125954E+001	0	-4.5846697E-005
6.045879847268225E+001	9.3007879E-003	-1.2075022E+001	0	-6.4934356E-005
6.046099847262667E+001	9.3771489E-003	-1.2018362E+001	0	8.7766879E-005
6.046279847258120E+001	9.2435181E-003	-1.1965521E+001	0	1.1416267E-005
6.046479847253067E+001	9.3771489E-003	-1.1912043E+001	0	1.1416267E-005
6.046679847248015E+001	9.3007879E-003	-1.1856019E+001	0	-2.6759042E-005
6.046859847243468E+001	9.3198782E-003	-1.1804452E+001	0	-8.4022009E-005
6.047079847237910E+001	9.3580587E-003	-1.1752248E+001	0	-7.6713877E-006
6.047279847232858E+001	9.2816977E-003	-1.1692403E+001	0	-7.6713877E-006
6.047519847226795E+001	9.3198782E-003	-1.1637652E+001	0	3.0503921E-005
6.047699847222248E+001	9.3962392E-003	-1.1582902E+001	0	-1.4128498E-004
6.047919847216690E+001	9.2244279E-003	-1.1530061E+001	0	1.0685454E-004
6.048099847212143E+001	9.3007879E-003	-1.1476583E+001	0	-2.6759042E-005
6.048339847206080E+001	9.2435181E-003	-1.1422469E+001	0	3.0503921E-005
6.048539847201027E+001	9.2435181E-003	-1.1372175E+001	0	-1.2219732E-004
6.048719847196480E+001	9.3962392E-003	-1.1321880E+001	0	1.1416267E-005
6.048959847190417E+001	9.1862474E-003	-1.1268403E+001	0	-8.4022009E-005
6.049159847185365E+001	9.4153285E-003	-1.1218108E+001	0	-1.0310966E-004
6.049399847179302E+001	9.3007879E-003	-1.1163995E+001	0	-8.4022009E-005
6.049579847174755E+001	9.3771489E-003	-1.1113700E+001	0	3.0503921E-005
6.049799847169197E+001	9.2435181E-003	-1.1060859E+001	0	-7.6713877E-006
6.050019847163640E+001	9.3198782E-003	-1.1010565E+001	0	6.8679226E-005
6.050259847157577E+001	9.2435181E-003	-1.0953267E+001	0	-6.4934356E-005
6.050459847152524E+001	9.1862474E-003	-1.0900427E+001	0	-4.5846697E-005
6.050699847146461E+001	9.3389684E-003	-1.0850132E+001	0	-2.6759042E-005
6.050939847140398E+001	9.3962392E-003	-1.0793471E+001	0	-7.6713877E-006
6.051159847134841E+001	9.3771489E-003	-1.0740631E+001	0	-2.6759042E-005
6.051419847128273E+001	9.2626074E-003	-1.0687153E+001	0	4.9591574E-005
6.051639847122715E+001	9.3007879E-003	-1.0636222E+001	0	-4.5846697E-005
6.051879847116652E+001	9.2626074E-003	-1.0584654E+001	0	4.9591574E-005
6.052119847110589E+001	9.3007879E-003	-1.0529266E+001	0	1.0685454E-004
6.052379847104021E+001	9.2626074E-003	-1.0474516E+001	0	-1.0310966E-004
6.052619847097958E+001	9.3771489E-003	-1.0421676E+001	0	3.0503921E-005
6.052879847091390E+001	9.2816977E-003	-1.0368198E+001	0	-6.4934356E-005
6.053119847085327E+001	9.2816977E-003	-1.0314083E+001	0	-7.6713877E-006
6.053379847078759E+001	9.3007879E-003	-1.0263151E+001	0	3.0503921E-005
6.053599847073201E+001	9.2626074E-003	-1.0212858E+001	0	-4.5846697E-005
6.053899847065622E+001	9.2435181E-003	-1.0160016E+001	0	-7.6713877E-006
6.054139847059560E+001	9.3007879E-003	-1.0105903E+001	0	-4.5846697E-005
6.054419847052486E+001	9.3962392E-003	-1.0049879E+001	0	-4.5846697E-005
6.054679847045918E+001	9.2244279E-003	-9.9983110E+000	0	-2.6759042E-005
6.054959847038845E+001	9.3007879E-003	-9.9435606E+000	0	6.8679226E-005
6.055239847031771E+001	9.2244279E-003	-9.8888092E+000	0	-7.6713877E-006
6.055519847024698E+001	9.2626074E-003	-9.8385153E+000	0	1.1416267E-005
6.055739847019140E+001	9.2626074E-003	-9.7882214E+000	0	4.9591574E-005
6.056059847011056E+001	9.2626074E-003	-9.7366533E+000	0	1.1416267E-005
6.056359847003478E+001	9.1862474E-003	-9.6831760E+000	0	3.0503921E-005
6.056599846997415E+001	9.3389684E-003	-9.6316080E+000	0	1.1416267E-005
6.056899846989836E+001	9.3580587E-003	-9.5800409E+000	0	1.1416267E-005
6.057199846982257E+001	9.3580587E-003	-9.5291100E+000	0	4.9591574E-005
6.057479846975184E+001	9.2244279E-003	-9.4762678E+000	0	6.8679226E-005
6.057779846967605E+001	9.2626074E-003	-9.4246998E+000	0	4.9591574E-005
6.058119846959016E+001	9.2435181E-003	-9.3718605E+000	0	6.8679226E-005
6.058399846951943E+001	9.3962392E-003	-9.3113794E+000	0	-2.6759042E-005
6.058759846942849E+001	9.3198782E-003	-9.2604485E+000	0	1.1416267E-005
6.059039846935775E+001	9.4153285E-003	-9.2076073E+000	0	-4.5846697E-005
6.059359846927691E+001	9.3962392E-003	-9.1547670E+000	0	-7.6713877E-006
6.059699846919102E+001	9.3198782E-003	-9.1031990E+000	0	6.8679226E-005
6.060019846911018E+001	9.3198782E-003	-9.0516319E+000	0	-2.6759042E-005
6.060339846902934E+001	9.4153285E-003	-9.0013371E+000	0	3.0503921E-005
6.060679846894345E+001	9.2244279E-003	-8.9484968E+000	0	8.7766879E-005
6.060999846886261E+001	9.2626074E-003	-8.8975649E+000	0	3.0503921E-005
6.061319846878177E+001	9.4153285E-003	-8.8453608E+000	0	-6.4934356E-005
6.061679846869083E+001	9.3771489E-003	-8.7931566E+000	0	-4.5846697E-005
6.062039846859989E+001	9.2435181E-003	-8.7390423E+000	0	1.1416267E-005
6.062419846850389E+001	9.2435181E-003	-8.6830187E+000	0	1.1416267E-005
6.062739846842305E+001	9.2435181E-003	-8.6301775E+000	0	-4.5846697E-005
6.063179846831190E+001	9.3962392E-003	-8.5760632E+000	0	-4.5846697E-005
6.063559846821590E+001	9.3007879E-003	-8.5162191E+000	0	-7.6713877E-006
6.063939846811991E+001	9.3198782E-003	-8.4646521E+000	0	1.1416267E-005
6.064299846802896E+001	9.3007879E-003	-8.4137211E+000	0	-7.6713877E-006
6.064679846793297E+001	9.3007879E-003	-8.3621531E+000	0	1.1416267E-005
6.065099846782687E+001	9.3389684E-003	-8.3054924E+000	0	3.0503921E-005
6.065539846771571E+001	9.2435181E-003	-8.2481947E+000	0	1.1416267E-005
6.065959846760961E+001	9.3771489E-003	-8.1972637E+000	0	6.8679226E-005
6.066379846750351E+001	9.2435181E-003	-8.1463337E+000	0	-1.6037263E-004
6.066779846740246E+001	9.2816977E-003	-8.0954018E+000	0	-2.6759042E-005
6.067159846730647E+001	9.1862474E-003	-8.0451078E+000	0	-4.5846697E-005
6.067599846719531E+001	9.3389684E-003	-7.9909930E+000	0	-2.6759042E-005
6.068059846707911E+001	9.2626074E-003	-7.9375153E+000	0	-8.4022009E-005
6.068539846695785E+001	9.3580587E-003	-7.8834014E+000	0	6.8679226E-005
6.068959846685175E+001	9.3007879E-003	-7.8305602E+000	0	-4.5846697E-005
6.069459846672544E+001	9.3580587E-003	-7.7739000E+000	0	-7.6713877E-006
6.069959846659913E+001	9.2816977E-003	-7.7204223E+000	0	-7.6713877E-006
6.070419846648292E+001	9.3007879E-003	-7.6643987E+000	0	-2.6759042E-005
6.070939846635156E+001	9.2626074E-003	-7.6090112E+000	0	-4.5846697E-005
6.071459846622020E+001	9.3389684E-003	-7.5580802E+000	0	-6.4934356E-005
6.071919846610399E+001	9.2816977E-003	-7.5071492E+000	0	3.0503921E-005
6.072459846596757E+001	9.2816977E-003	-7.4555812E+000	0	-7.6713877E-006
6.072939846584632E+001	9.3771489E-003	-7.4052868E+000	0	-8.4022009E-005
6.073379846573516E+001	9.2626074E-003	-7.3530827E+000	0	6.8679226E-005
6.073959846558864E+001	9.1671571E-003	-7.3021517E+000	0	1.1416267E-005
6.074479846545728E+001	9.4725993E-003	-7.2518578E+000	0	-6.4934356E-005
6.074999846532592E+001	9.3389684E-003	-7.1983805E+000	0	1.1416267E-005
6.075579846517940E+001	9.3198782E-003	-7.1468129E+000	0	-2.6759042E-005
6.076159846503288E+001	9.3389684E-003	-7.0958810E+000	0	-7.6713877E-006
6.076659846490656E+001	9.3007879E-003	-7.0455875E+000	0	4.9591574E-005
6.077259846475499E+001	9.3962392E-003	-6.9902000E+000	0	1.1416267E-005
6.077899846459331E+001	9.3007879E-003	-6.9348121E+000	0	-1.0310966E-004
6.078539846443164E+001	9.3580587E-003	-6.8838811E+000	0	-2.6759042E-005
6.079079846429522E+001	9.1862474E-003	-6.8272204E+000	0	-2.6759042E-005
6.079819846410828E+001	9.2816977E-003	-6.7769260E+000	0	-4.5846697E-005
6.080459846394660E+001	9.3007879E-003	-6.7215385E+000	0	1.1416267E-005
6.081059846379503E+001	9.3580587E-003	-6.6712441E+000	0	-1.4128498E-004
6.081759846361820E+001	9.2626074E-003	-6.6177669E+000	0	-7.6713877E-006
6.082399846345652E+001	9.3007879E-003	-6.5674725E+000	0	-4.5846697E-005
6.083079846328474E+001	9.2435181E-003	-6.5133581E+000	0	8.7766879E-005
6.083799846310285E+001	9.3580587E-003	-6.4598808E+000	0	-4.5846697E-005
6.084419846294622E+001	9.3771489E-003	-6.4076762E+000	0	-1.7946029E-004
6.085219846274413E+001	9.2435181E-003	-6.3529258E+000	0	-4.5846697E-005
6.085939846256224E+001	9.4344188E-003	-6.3026314E+000	0	3.0503921E-005
6.086719846236520E+001	9.3198782E-003	-6.2472439E+000	0	-1.2219732E-004
6.087539846215805E+001	9.3007879E-003	-6.1963129E+000	0	-1.6037263E-004
6.088239846198121E+001	9.2626074E-003	-6.1460190E+000	0	-1.0310966E-004
6.089059846177406E+001	9.3198782E-003	-6.0893579E+000	0	1.1416267E-005
6.089899846156186E+001	9.2244279E-003	-6.0352440E+000	0	3.0503921E-005
6.090719846135471E+001	9.3389684E-003	-5.9843130E+000	0	-6.4934356E-005
6.091499846115767E+001	9.3007879E-003	-5.9301987E+000	0	1.2594218E-004
6.092359846094041E+001	9.3007879E-003	-5.8760843E+000	0	4.9591574E-005
6.093279846070800E+001	9.2244279E-003	-5.8257899E+000	0	-1.0310966E-004
6.094159846048569E+001	9.2816977E-003	-5.7754955E+000	0	4.9591574E-005
6.094959846028360E+001	9.3580587E-003	-5.7220182E+000	0	3.0503921E-005
6.095939846003603E+001	9.3771489E-003	-5.6691775E+000	0	1.1416267E-005
6.096879845979856E+001	9.2626074E-003	-5.6144261E+000	0	3.0503921E-005
6.097839845955605E+001	9.2435181E-003	-5.5641322E+000	0	-4.5846697E-005
6.098759845932364E+001	9.2626074E-003	-5.5100183E+000	0	-4.5846697E-005
6.099759845907101E+001	9.3962392E-003	-5.4571767E+000	0	-2.6759042E-005
6.100779845881334E+001	9.2244279E-003	-5.4056091E+000	0	4.9591574E-005
6.101739845857082E+001	9.3198782E-003	-5.3546782E+000	0	-6.4934356E-005
6.102719845832326E+001	9.3389684E-003	-5.3037477E+000	0	-1.4128498E-004
6.103779845805548E+001	9.3198782E-003	-5.2528167E+000	0	-2.6759042E-005
6.104679845782812E+001	9.3198782E-003	-5.2025218E+000	0	3.0503921E-005
6.105599845759571E+001	9.3198782E-003	-5.1496811E+000	0	1.1416267E-005
6.106959845725214E+001	9.1671571E-003	-5.0962038E+000	0	8.7766879E-005
6.107939845700457E+001	9.3198782E-003	-5.0452728E+000	0	1.2594218E-004
6.109119845670648E+001	9.2626074E-003	-4.9943414E+000	0	-7.6713877E-006
6.110179845643870E+001	9.1862474E-003	-4.9440470E+000	0	-7.6713877E-006
6.111399845613050E+001	9.2626074E-003	-4.8931160E+000	0	1.1416267E-005
6.112519845584757E+001	9.2816977E-003	-4.8421855E+000	0	3.0503921E-005
6.113739845553937E+001	9.2435181E-003	-4.7899809E+000	0	1.1416267E-005
6.114919845524128E+001	9.2053376E-003	-4.7396865E+000	0	-6.4934356E-005
6.116119845493813E+001	9.2244279E-003	-4.6893921E+000	0	1.1416267E-005
6.117339845462993E+001	9.4725993E-003	-4.6352777E+000	0	-2.6759042E-005
6.118739845427626E+001	9.3198782E-003	-4.5849838E+000	0	3.0503921E-005
6.119959845396806E+001	9.3771489E-003	-4.5289598E+000	0	-4.5846697E-005
6.121319845362450E+001	9.3771489E-003	-4.4773922E+000	0	-7.6713877E-006
6.122719845327083E+001	9.3198782E-003	-4.4245510E+000	0	-4.5846697E-005
6.124059845293232E+001	9.3007879E-003	-4.3729835E+000	0	8.7766879E-005
6.125499845256854E+001	9.2626074E-003	-4.3175960E+000	0	1.1416267E-005
6.126899845221487E+001	9.2053376E-003	-4.2634816E+000	0	-4.5846697E-005
6.130519845130038E+001	9.3198782E-003	-4.1731300E+000	0	-4.5846697E-005
6.131959845093661E+001	9.3007879E-003	-4.1226587E+000	0	3.0503921E-005
6.133439845056273E+001	9.2435181E-003	-4.0723786E+000	0	-4.5846697E-005
6.134939845018380E+001	9.2244279E-003	-4.0219712E+000	0	4.9591574E-005
6.136479844979476E+001	9.3771489E-003	-3.9718814E+000	0	-4.5846697E-005
6.138059844939562E+001	9.3389684E-003	-3.9215379E+000	0	1.1416267E-005
6.139679844898637E+001	9.3580587E-003	-3.8706844E+000	0	-7.6713877E-006
6.141319844857208E+001	9.3389684E-003	-3.8204679E+000	0	-4.5846697E-005
6.142959844815778E+001	9.2626074E-003	-3.7704418E+000	0	-1.0310966E-004
6.144679844772327E+001	9.2816977E-003	-3.7190797E+000	0	1.2594218E-004
6.146439844727865E+001	9.2816977E-003	-3.6677175E+000	0	6.8679226E-005
6.148219844682899E+001	9.2244279E-003	-3.6173735E+000	0	1.1416267E-005
6.150019844637427E+001	9.3389684E-003	-3.5673478E+000	0	-2.6759042E-005
6.151859844590945E+001	9.2626074E-003	-3.5170038E+000	0	-7.6713877E-006
6.153739844543452E+001	9.2244279E-003	-3.4665327E+000	0	-4.5846697E-005
6.155639844495454E+001	9.2244279E-003	-3.4161885E+000	0	1.1416267E-005
6.157599844445940E+001	9.2244279E-003	-3.3657174E+000	0	-7.6713877E-006
6.159659844393900E+001	9.3007879E-003	-3.3147368E+000	0	1.2594218E-004
6.161679844342871E+001	9.3580587E-003	-3.2643929E+000	0	-6.4934356E-005
6.163799844289315E+001	9.2435181E-003	-3.2136674E+000	0	-1.4128498E-004
6.165939844235254E+001	9.3007879E-003	-3.1636415E+000	0	-8.4022009E-005
6.168179844178667E+001	9.2816977E-003	-3.1134250E+000	0	4.9591574E-005
6.170419844122080E+001	9.3580587E-003	-3.0626991E+000	0	3.0503921E-005
6.172759844062966E+001	9.3198782E-003	-3.0125461E+000	0	-4.5846697E-005
6.175159844002337E+001	9.3580587E-003	-2.9619474E+000	0	-6.4934356E-005
6.177599843940698E+001	9.2816977E-003	-2.9118583E+000	0	-7.6713877E-006
6.180119843877037E+001	9.3580587E-003	-2.8610051E+000	0	-8.4022009E-005
6.182759843810345E+001	9.2626074E-003	-2.8105977E+000	0	6.8679226E-005
6.185419843743148E+001	9.3962392E-003	-2.7598717E+000	0	8.7766879E-005
6.188199843672919E+001	9.3198782E-003	-2.7094004E+000	0	-7.6713877E-006
6.191039843601175E+001	9.3389684E-003	-2.6592474E+000	0	-1.0310966E-004
6.193979843526904E+001	9.2816977E-003	-2.6090307E+000	0	-7.6713877E-006
6.196979843451118E+001	9.2435181E-003	-2.5588777E+000	0	1.1416267E-005
6.200119843371795E+001	9.2626074E-003	-2.5085337E+000	0	-6.4934356E-005
6.203379843289440E+001	9.3007879E-003	-2.4580626E+000	0	-8.4022009E-005
6.206779843203549E+001	9.3580587E-003	-2.4079733E+000	0	1.1416267E-005
6.210299843114626E+001	9.2626074E-003	-2.3572474E+000	0	-7.6713877E-006
6.213899843023682E+001	9.3580587E-003	-2.3060124E+000	0	-1.0310966E-004
6.217739842926676E+001	9.1862474E-003	-2.2556684E+000	0	-8.4022009E-005
6.221699842826638E+001	9.3198782E-003	-2.2047517E+000	0	1.0685454E-004
6.225819842722558E+001	9.3580587E-003	-2.1540258E+000	0	-2.6759042E-005
6.230119842613931E+001	9.3771489E-003	-2.1040001E+000	0	-6.4934356E-005
6.234619842500251E+001	9.3389684E-003	-2.0533378E+000	0	-8.4022009E-005
6.239239842383540E+001	9.3389684E-003	-2.0031850E+000	0	-2.6759042E-005
6.244219842257735E+001	9.3389684E-003	-1.9531592E+000	0	3.0503921E-005
6.249379842127382E+001	9.3007879E-003	-1.9024968E+000	0	-4.5846697E-005
6.254799841990462E+001	9.1671571E-003	-1.8523440E+000	0	4.9591574E-005
6.260519841845962E+001	9.1289766E-003	-1.8020636E+000	0	1.8320515E-004
6.266439841696410E+001	9.2816977E-003	-1.7517833E+000	0	-8.4022009E-005
6.272819841535238E+001	9.3389684E-003	-1.7016940E+000	0	1.1416267E-005
6.279539841365477E+001	9.2244279E-003	-1.6516683E+000	0	1.1416267E-005
6.286599841187126E+001	9.2435181E-003	-1.6016426E+000	0	-6.4934356E-005
6.294099840997660E+001	9.2626074E-003	-1.5514259E+000	0	-2.6759042E-005
6.302219840792532E+001	9.3198782E-003	-1.5012093E+000	0	3.0503921E-005
6.310799840575783E+001	9.3389684E-003	-1.4510564E+000	0	1.1416267E-005
6.320099840340845E+001	9.3198782E-003	-1.4009669E+000	0	4.9591574E-005
6.330079840088729E+001	9.2626074E-003	-1.3508774E+000	0	-7.6713877E-006
6.340659839821456E+001	9.2816977E-003	-1.3005972E+000	0	-7.6713877E-006
6.352099839532457E+001	9.2816977E-003	-1.2503170E+000	0	-2.6759042E-005
6.364659839215165E+001	9.2435181E-003	-1.2001003E+000	0	8.7766879E-005
6.378259838871600E+001	9.3198782E-003	-1.1498836E+000	0	-7.6713877E-006
6.393139838495699E+001	9.2053376E-003	-1.0993488E+000	0	8.7766879E-005
6.409379838085442E+001	9.3771489E-003	-1.0493231E+000	0	-7.6713877E-006
6.427219837634766E+001	9.2435181E-003	-9.9910629E-001	0	8.7766879E-005
6.446919837137102E+001	9.3007879E-003	-9.4888961E-001	0	1.0685454E-004
6.469199836574262E+001	9.3007879E-003	-8.9835477E-001	0	1.2594218E-004
6.493819835952308E+001	9.2244279E-003	-8.4832907E-001	0	-2.6759042E-005
6.521899835242948E+001	9.2626074E-003	-7.9830331E-001	0	4.9591574E-005
6.553139834453759E+001	9.2244279E-003	-7.4802297E-001	0	1.1416267E-005
6.589499833535228E+001	9.2626074E-003	-6.9780642E-001	0	-4.5846697E-005
6.631379832477251E+001	9.3389684E-003	-6.4771700E-001	0	-4.5846697E-005
6.680319831240922E+001	9.2626074E-003	-5.9756404E-001	0	-2.6759042E-005
6.738659829767130E+001	9.3198782E-003	-5.4734737E-001	0	-4.5846697E-005
6.809999827964930E+001	9.3580587E-003	-4.9713066E-001	0	-2.6759042E-005
6.897659825750452E+001	9.2626074E-003	-4.4678670E-001	0	-1.0310966E-004
7.017959822711418E+001	9.3007879E-003	-3.9673936E-001	0	-2.6759042E-005
7.166179818967066E+001	9.3389684E-003	-3.4649613E-001	0	-8.4022009E-005
7.370139813814603E+001	9.3198782E-003	-2.9646930E-001	0	8.7766879E-005
7.662739806422906E+001	9.2626074E-003	-2.4623242E-001	0	-1.4128498E-004
8.127299794687133E+001	9.2435181E-003	-1.9621192E-001	0	-6.4934356E-005
8.983719773052144E+001	9.3580587E-003	-1.4612143E-001	0	-6.4934356E-005
9.983719747790019E+001	9.2435181E-003	-1.1610276E-001	0	4.9591574E-005
1.098371972252789E+002	9.2816977E-003	-9.7284615E-002	0	-2.6759042E-005
1.198371969726577E+002	9.2626074E-003	-8.4493108E-002	0	3.0503921E-005
1.298371967200364E+002	9.3389684E-003	-7.5354517E-002	0	3.0503921E-005
1.398371964674152E+002	9.2244279E-003	-6.7959629E-002	0	1.1416267E-005
1.498371962147939E+002	9.2816977E-003	-6.1869346E-002	0	-6.4934356E-005
1.598371959621727E+002	9.2244279E-003	-5.7140946E-002	0	-6.4934356E-005
1.698371957095515E+002	9.3007879E-003	-5.2768927E-002	0	-6.4934356E-005
1.798371954569302E+002	9.3771489E-003	-4.9141482E-002	0	-6.4934356E-005
1.898371952043090E+002	9.3580587E-003	-4.6175893E-002	0	1.2594218E-004
1.998371949516877E+002	9.3771489E-003	-4.3623317E-002	0	6.8679226E-005
2.098371946990665E+002	9.2626074E-003	-4.1041810E-002	0	-6.4934356E-005
2.198371944464452E+002	9.2626074E-003	-3.8823001E-002	0	3.0503921E-005
2.298371941938240E+002	9.2053376E-003	-3.6620740E-002	0	4.9591574E-005
2.398371939412027E+002	9.3198782E-003	-3.4663454E-002	0	6.8679226E-005
2.498371936885815E+002	9.3198782E-003	-3.2744352E-002	0	-4.5846697E-005
2.598371934359602E+002	9.2053376E-003	-3.0988138E-002	0	-6.4934356E-005
2.698371931833390E+002	9.2816977E-003	-2.9398005E-002	0	8.7766879E-005
2.798371929307177E+002	9.4153285E-003	-2.8085938E-002	0	-7.6713877E-006
2.898371926780965E+002	9.3198782E-003	-2.6796775E-002	0	-2.6759042E-005
2.998371924254752E+002	9.3389684E-003	-2.5641875E-002	0	-2.6759042E-005
3.098371921728540E+002	9.2626074E-003	-2.4437344E-002	0	-2.6759042E-005
3.198371919202327E+002	9.3580587E-003	-2.3358801E-002	0	-4.5846697E-005
3.298371916676115E+002	9.2816977E-003	-2.2424066E-002	0	-4.5846697E-005
3.398371914149902E+002	9.3580587E-003	-2.1568231E-002	0	-2.6759042E-005
3.498371911623690E+002	9.3007879E-003	-2.0688850E-002	0	4.9591574E-005
3.598371909097477E+002	9.2626074E-003	-1.9733753E-002	0	1.1416267E-005
3.698371906571265E+002	9.3580587E-003	-1.9112717E-002	0	-4.5846697E-005
3.798371904045052E+002	9.3198782E-003	-1.8238429E-002	0	1.1416267E-005
3.898371901518840E+002	9.3580587E-003	-1.7645389E-002	0	1.0685454E-004
3.998371898992627E+002	9.3007879E-003	-1.6956266E-002	0	-2.6759042E-005
4.098371896466415E+002	9.2626074E-003	-1.6316777E-002	0	8.7766879E-005
4.198371893940202E+002	9.3771489E-003	-1.5903177E-002	0	4.9591574E-005
4.298371891413990E+002	9.2816977E-003	-1.5420855E-002	0	3.0503921E-005
4.398371888887777E+002	9.2244279E-003	-1.4830359E-002	0	-6.4934356E-005
4.498371886361565E+002	9.3007879E-003	-1.4428850E-002	0	-7.6713877E-006
4.598371883835352E+002	9.3389684E-003	-1.3882261E-002	0	-6.4934356E-005
4.698371881309140E+002	9.3389684E-003	-1.3383395E-002	0	-7.6713877E-006
4.798371878782928E+002	9.3580587E-003	-1.2852078E-002	0	-7.6713877E-006
4.898371876256715E+002	9.3389684E-003	-1.2484929E-002	0	-7.6713877E-006
4.998371873730503E+002	9.2816977E-003	-1.2063692E-002	0	-7.6713877E-006
5.098371871204290E+002	9.2816977E-003	-1.1492924E-002	0	-2.6759042E-005
5.198371868678078E+002	9.2626074E-003	-1.1222492E-002	0	1.1416267E-005
5.298371866151865E+002	9.2816977E-003	-1.0826709E-002	0	-7.6713877E-006
5.398371863625653E+002	9.2244279E-003	-1.0413744E-002	0	1.1416267E-005
5.498371861099440E+002	9.4153285E-003	-1.0227942E-002	0	-8.4022009E-005
5.598371858573228E+002	9.2626074E-003	-9.9263322E-003	0	1.1416267E-005
5.698371856047015E+002	9.3198782E-003	-9.5725441E-003	0	1.1416267E-005
5.798371853520803E+002	9.2626074E-003	-9.2842961E-003	0	-1.0310966E-004
5.898371850994590E+002	9.2816977E-003	-8.9686885E-003	0	-2.6759042E-005
5.998371848468378E+002	9.3198782E-003	-8.6250817E-003	0	-1.2219732E-004
6.098371845942165E+002	9.3771489E-003	-8.3947368E-003	0	-6.4934356E-005
6.198371843415953E+002	9.2816977E-003	-8.2038445E-003	0	-4.5846697E-005
6.298371840889740E+002	9.1671571E-003	-7.9824096E-003	0	1.4502984E-004
6.398371838363528E+002	9.3198782E-003	-7.7717914E-003	0	-1.2219732E-004
6.498371835837315E+002	9.3198782E-003	-7.6184417E-003	0	-8.4022009E-005
6.598371833311103E+002	9.3007879E-003	-7.3352843E-003	0	1.0685454E-004
6.698371830784890E+002	9.3771489E-003	-7.2322022E-003	0	4.9591574E-005
6.798371828258678E+002	9.2435181E-003	-7.1017593E-003	0	-6.4934356E-005
6.898371825732465E+002	9.3580587E-003	-6.9560451E-003	0	-4.5846697E-005
6.998371823206253E+002	9.3007879E-003	-6.7384271E-003	0	-1.2219732E-004
7.098371820680040E+002	9.3007879E-003	-6.5685334E-003	0	-1.0310966E-004
7.198371818153828E+002	9.2816977E-003	-6.4514517E-003	0	4.9591574E-005
7.298371815627615E+002	9.2816977E-003	-6.2777395E-003	0	-4.5846697E-005
7.398371813101403E+002	9.3198782E-003	-6.1428430E-003	0	-8.4022009E-005
7.498371810575190E+002	9.2244279E-003	-6.0047638E-003	0	-2.6759042E-005
7.598371808048978E+002	9.3580587E-003	-5.7400600E-003	0	-7.6713877E-006
7.698371805522766E+002	9.2816977E-003	-5.7056993E-003	0	1.0685454E-004
7.798371802996553E+002	9.1671571E-003	-5.6000715E-003	0	-7.6713877E-006
7.898371800470341E+002	9.2053376E-003	-5.4766280E-003	0	-4.5846697E-005
7.998371797944128E+002	9.3389684E-003	-5.3824540E-003	0	1.1416267E-005
8.098371795417916E+002	9.3580587E-003	-5.3124605E-003	0	-6.4934356E-005
8.198371792891703E+002	9.2244279E-003	-5.1190220E-003	0	-2.6759042E-005
8.298371790365491E+002	9.3389684E-003	-4.9370383E-003	0	-1.6037263E-004
8.398371787839278E+002	9.2435181E-003	-4.9103135E-003	0	1.1416267E-005
8.498371785313066E+002	9.2053376E-003	-4.8027770E-003	0	-6.4934356E-005
8.598371782786853E+002	9.2816977E-003	-4.7805062E-003	0	1.1416267E-005
8.698371780260641E+002	9.2626074E-003	-4.6430640E-003	0	4.9591574E-005
8.798371777734428E+002	9.3007879E-003	-4.4063572E-003	0	4.9591574E-005
8.898371775208216E+002	9.2626074E-003	-4.4508749E-003	0	3.0503921E-005
8.998371772682003E+002	9.3007879E-003	-4.4073360E-003	0	-4.5846697E-005
9.098371770155791E+002	9.2435181E-003	-4.3348991E-003	0	-2.6759042E-005
9.198371767629578E+002	9.3007879E-003	-4.2285980E-003	0	1.1416267E-005
9.298371765103366E+002	9.3198782E-003	-4.1303174E-003	0	-2.6759042E-005
9.398371762577153E+002	9.2435181E-003	-4.0983637E-003	0	1.1416267E-005
9.498371760050941E+002	9.2244279E-003	-4.0437491E-003	0	-4.5846697E-005
9.598371757524728E+002	9.2816977E-003	-3.9443863E-003	0	-6.4934356E-005
9.698371754998516E+002	9.2435181E-003	-3.9051762E-003	0	-6.4934356E-005
9.798371752472303E+002	9.3389684E-003	-3.8298105E-003	0	-7.6713877E-006
9.898371749946091E+002	9.3389684E-003	-3.7611928E-003	0	4.9591574E-005
9.998371747419878E+002	9.3007879E-003	-3.6902193E-003	0	-2.6759042E-005
1.009837174489367E+003	9.1480669E-003	-3.6256115E-003	0	1.1416267E-005
1.019837174236745E+003	9.1671571E-003	-3.6058791E-003	0	-4.5846697E-005
1.029837173984124E+003	9.2244279E-003	-3.5800359E-003	0	3.0503921E-005
1.039837173731503E+003	9.3007879E-003	-3.4961409E-003	0	-4.5846697E-005
1.049837173478882E+003	9.3007879E-003	-3.4298780E-003	0	-4.5846697E-005
1.059837173226260E+003	9.3389684E-003	-3.3780008E-003	0	-1.4128498E-004
1.069837172973639E+003	9.3198782E-003	-3.3478928E-003	0	-6.4934356E-005
1.079837172721018E+003	9.3198782E-003	-3.3152387E-003	0	-6.4934356E-005
1.089837172468397E+003	9.2626074E-003	-3.2724638E-003	0	1.1416267E-005
1.099837172215775E+003	9.2244279E-003	-3.1845586E-003	0	6.8679226E-005
1.109837171963154E+003	9.2244279E-003	-3.1268254E-003	0	-2.6759042E-005
1.119837171710533E+003	9.3007879E-003	-3.0862147E-003	0	-1.0310966E-004
1.129837171457912E+003	9.2816977E-003	-3.0260624E-003	0	-6.4934356E-005
1.139837171205290E+003	9.3198782E-003	-2.9952545E-003	0	-2.6759042E-005
1.149837170952669E+003	9.3389684E-003	-3.0011742E-003	0	-4.5846697E-005
1.159837170700048E+003	9.3198782E-003	-2.9291827E-003	0	6.8679226E-005
1.169837170447427E+003	9.3198782E-003	-2.8990109E-003	0	1.1416267E-005
1.179837170194805E+003	9.2816977E-003	-2.8615829E-003	0	-6.4934356E-005
1.189837169942184E+003	9.3007879E-003	-2.8028311E-003	0	-4.5846697E-005
1.199837169689563E+003	9.3771489E-003	-2.7829714E-003	0	-7.6713877E-006
1.209837169436942E+003	9.3389684E-003	-2.7484074E-003	0	-6.4934356E-005
1.219837169184320E+003	9.3007879E-003	-2.7278475E-003	0	1.2594218E-004
1.229837168931699E+003	9.3007879E-003	-2.6872368E-003	0	-6.4934356E-005
1.239837168679078E+003	9.2626074E-003	-2.6913746E-003	0	1.0685454E-004
1.249837168426457E+003	9.3771489E-003	-2.6352324E-003	0	-6.4934356E-005
1.259837168173835E+003	9.3771489E-003	-2.6160728E-003	0	-2.6759042E-005
1.269837167921214E+003	9.3198782E-003	-2.5606945E-003	0	1.0685454E-004
1.279837167668593E+003	9.3198782E-003	-2.5599943E-003	0	1.1416267E-005
1.289837167415972E+003	9.3007879E-003	-2.5034705E-003	0	3.0503921E-005
1.299837167163350E+003	9.2435181E-003	-2.5070987E-003	0	3.0503921E-005
1.309837166910729E+003	9.3198782E-003	-2.4526115E-003	0	-8.4022009E-005
1.319837166658108E+003	9.3962392E-003	-2.3871125E-003	0	-7.6713877E-006
1.329837166405487E+003	9.3389684E-003	-2.3672527E-003	0	-2.6759042E-005
1.339837166152865E+003	9.3007879E-003	-2.3829113E-003	0	1.1416267E-005
1.349837165900244E+003	9.2816977E-003	-2.3410912E-003	0	-6.4934356E-005
1.359837165647623E+003	9.3198782E-003	-2.3116835E-003	0	-8.4022009E-005
1.369837165395002E+003	9.4344188E-003	-2.3042997E-003	0	-2.6759042E-005
1.379837165142380E+003	9.2816977E-003	-2.2715183E-003	0	-1.0310966E-004
1.389837164889759E+003	9.3962392E-003	-2.2447840E-003	0	-1.0310966E-004
1.399837164637138E+003	9.3198782E-003	-2.1639445E-003	0	-2.6759042E-005
1.409837164384517E+003	9.3198782E-003	-2.1659178E-003	0	-4.5846697E-005
1.419837164131895E+003	9.3389684E-003	-2.1768659E-003	0	4.9591574E-005
1.429837163879274E+003	9.2816977E-003	-2.1373373E-003	0	-1.2219732E-004
1.439837163626653E+003	9.3198782E-003	-2.1304630E-003	0	-4.5846697E-005
1.449837163374032E+003	9.3198782E-003	-2.1317995E-003	0	4.9591574E-005
1.459837163121410E+003	9.2816977E-003	-2.0691014E-003	0	1.1416267E-005
1.469837162868789E+003	9.2435181E-003	-2.0603172E-003	0	1.1416267E-005
1.479837162616168E+003	9.2816977E-003	-2.0538245E-003	0	6.8679226E-005
1.489837162363547E+003	9.2816977E-003	-2.0519786E-003	0	-6.4934356E-005
1.499837162110925E+003	9.2626074E-003	-2.0230163E-003	0	1.1416267E-005
1.509837161858304E+003	9.3007879E-003	-1.9991465E-003	0	4.9591574E-005
1.519837161605683E+003	9.2435181E-003	-2.0064029E-003	0	4.9591574E-005
1.529837161353062E+003	9.3580587E-003	-1.9714574E-003	0	-1.4128498E-004
1.539837161100440E+003	9.2626074E-003	-1.9433862E-003	0	6.8679226E-005
1.549837160847819E+003	9.2626074E-003	-1.9440864E-003	0	-6.4934356E-005
1.559837160595198E+003	9.2053376E-003	-1.9134693E-003	0	8.7766879E-005
1.569837160342577E+003	9.2435181E-003	-1.8823430E-003	0	8.7766879E-005
1.579837160089955E+003	9.2435181E-003	-1.8431324E-003	0	8.7766879E-005
1.589837159837334E+003	9.3198782E-003	-1.8474610E-003	0	-8.4022009E-005
1.599837159584713E+003	9.2816977E-003	-1.8284924E-003	0	-1.0310966E-004
1.609837159332092E+003	9.2816977E-003	-1.8212360E-003	0	-1.4128498E-004
1.619837159079470E+003	9.2816977E-003	-1.8303382E-003	0	-4.5846697E-005
1.629837158826849E+003	9.3389684E-003	-1.7775699E-003	0	-4.5846697E-005
1.639837158574228E+003	9.2053376E-003	-1.7802431E-003	0	3.0503921E-005
1.649837158321607E+003	9.3007879E-003	-1.7340947E-003	0	1.1416267E-005
1.659837158068985E+003	9.2816977E-003	-1.7293206E-003	0	6.8679226E-005
1.669837157816364E+003	9.4153285E-003	-1.7183088E-003	0	6.8679226E-005
1.679837157563743E+003	9.3389684E-003	-1.6703779E-003	0	1.1416267E-005
1.689837157311122E+003	9.3007879E-003	-1.6820900E-003	0	-4.5846697E-005
1.699837157058500E+003	9.2816977E-003	-1.6738789E-003	0	-8.4022009E-005
1.709837156805879E+003	9.3198782E-003	-1.6477810E-003	0	1.1416267E-005
1.719837156553258E+003	9.4344188E-003	-1.6855273E-003	0	-8.4022009E-005
1.729837156300637E+003	9.2435181E-003	-1.6736243E-003	0	-4.5846697E-005
1.739837156048015E+003	9.3198782E-003	-1.6417977E-003	0	-2.6759042E-005
1.749837155795394E+003	9.3580587E-003	-1.6477173E-003	0	-2.6759042E-005
1.759837155542773E+003	9.2626074E-003	-1.6341592E-003	0	-4.5846697E-005
1.769837155290152E+003	9.3389684E-003	-1.6164000E-003	0	1.1416267E-005
1.779837155037530E+003	9.3007879E-003	-1.5787175E-003	0	-8.4022009E-005
1.789837154784909E+003	9.3198782E-003	-1.5733705E-003	0	-8.4022009E-005
1.799837154532288E+003	9.2244279E-003	-1.5586029E-003	0	-6.4934356E-005
1.809837154279667E+003	9.2244279E-003	-1.5496917E-003	0	-7.6713877E-006
1.819837154027045E+003	9.3007879E-003	-1.5706972E-003	0	-4.5846697E-005
1.829837153774424E+003	9.2816977E-003	-1.5057073E-003	0	-7.6713877E-006
1.839837153521803E+003	9.3198782E-003	-1.5301501E-003	0	6.8679226E-005
1.849837153269182E+003	9.2435181E-003	-1.4755357E-003	0	-1.7946029E-004
1.859837153016560E+003	9.2244279E-003	-1.4878208E-003	0	1.1416267E-005
1.860052753011114E+003	9.4535090E-003	-1.4887119E-003	0	-2.6759042E-005