time/s	Ewe/V	I/mA	error	
6.005299848293362E+001	2.8648753E+000	-2.5023418E-002	0
6.014319848065497E+001	9.3703605E-003	-6.7760139E+000	0
6.014359848064487E+001	9.2367167E-003	-6.7067604E+000	0
6.014399848063476E+001	9.2749009E-003	-6.6393533E+000	0
6.014439848062466E+001	9.3512684E-003	-6.5737281E+000	0
6.014479848061455E+001	9.3321763E-003	-6.5091219E+000	0
6.014519848060445E+001	9.3512684E-003	-6.4458523E+000	0
6.014559848059434E+001	9.2749009E-003	-6.3846822E+000	0
6.014599848058424E+001	9.3130842E-003	-6.3248501E+000	0
6.014639848057413E+001	9.3703605E-003	-6.2660995E+000	0
6.014679848056403E+001	9.3703605E-003	-6.2088771E+000	0
6.014719848055393E+001	9.3512684E-003	-6.1534362E+000	0
6.014759848054382E+001	9.2939930E-003	-6.0986962E+000	0
6.014799848053372E+001	9.3130842E-003	-6.0454197E+000	0
6.014839848052361E+001	9.3703605E-003	-5.9928432E+000	0
6.014879848051351E+001	9.3512684E-003	-5.9416037E+000	0
6.014939848049835E+001	9.3321763E-003	-5.8678951E+000	0
6.014999848048319E+001	9.4276359E-003	-5.7950778E+000	0
6.015059848046803E+001	9.4085438E-003	-5.7250605E+000	0
6.015119848045288E+001	9.2939930E-003	-5.6573987E+000	0
6.015179848043772E+001	9.3130842E-003	-5.5917101E+000	0
6.015239848042256E+001	9.4467280E-003	-5.5272946E+000	0
6.015299848040740E+001	9.3130842E-003	-5.4658704E+000	0
6.015359848039225E+001	9.2939930E-003	-5.4055285E+000	0
6.015419848037709E+001	9.4467280E-003	-5.3477964E+000	0
6.015479848036193E+001	9.2749009E-003	-5.2914648E+000	0
6.015539848034678E+001	9.3703605E-003	-5.2358336E+000	0
6.015599848033162E+001	9.2939930E-003	-5.1824932E+000	0
6.015659848031646E+001	9.4467280E-003	-5.1299806E+000	0
6.015719848030130E+001	9.3130842E-003	-5.0792499E+000	0
6.015799848028109E+001	9.4085438E-003	-5.0136886E+000	0
6.015879848026088E+001	9.3512684E-003	-4.9505467E+000	0
6.015959848024067E+001	9.4658202E-003	-4.8889952E+000	0
6.016039848022047E+001	9.4085438E-003	-4.8291626E+000	0
6.016119848020026E+001	9.4085438E-003	-4.7713032E+000	0
6.016199848018005E+001	9.4085438E-003	-4.7156720E+000	0
6.016279848015984E+001	9.3321763E-003	-4.6616950E+000	0
6.016359848013963E+001	9.3321763E-003	-4.6094370E+000	0
6.016439848011942E+001	9.3130842E-003	-4.5583248E+000	0
6.016539848009415E+001	9.3130842E-003	-4.4965191E+000	0
6.016639848006889E+001	9.3130842E-003	-4.4376411E+000	0
6.016739848004363E+001	9.3512684E-003	-4.3794632E+000	0
6.016839848001837E+001	9.3321763E-003	-4.3230681E+000	0
6.016939847999311E+001	9.3512684E-003	-4.2691550E+000	0
6.017039847996784E+001	9.2939930E-003	-4.2179151E+000	0
6.017139847994258E+001	9.3512684E-003	-4.1657844E+000	0
6.017259847991227E+001	9.3512684E-003	-4.1078615E+000	0
6.017379847988195E+001	9.4085438E-003	-4.0508933E+000	0
6.017499847985164E+001	9.3321763E-003	-3.9959617E+000	0
6.017619847982132E+001	9.4276359E-003	-3.9425578E+000	0
6.017739847979101E+001	9.4467280E-003	-3.8905544E+000	0
6.017859847976069E+001	9.3321763E-003	-3.8405240E+000	0
6.017999847972533E+001	9.3894526E-003	-3.7846379E+000	0
6.018139847968996E+001	9.3321763E-003	-3.7296429E+000	0
6.018279847965459E+001	9.5040035E-003	-3.6769392E+000	0
6.018419847961923E+001	9.2939930E-003	-3.6263363E+000	0
6.018559847958386E+001	9.3130842E-003	-3.5758603E+000	0
6.018719847954344E+001	9.4085438E-003	-3.5209930E+000	0
6.018879847950302E+001	9.4276359E-003	-3.4670157E+000	0
6.019059847945755E+001	9.3703605E-003	-3.4106841E+000	0
6.019239847941208E+001	9.3894526E-003	-3.3545432E+000	0
6.019419847936661E+001	9.3512684E-003	-3.3010759E+000	0
6.019599847932113E+001	9.3703605E-003	-3.2491999E+000	0
6.019779847927566E+001	9.3512684E-003	-3.1989150E+000	0
6.019979847922514E+001	9.3703605E-003	-3.1458294E+000	0
6.020179847917461E+001	9.3321763E-003	-3.0935080E+000	0
6.020379847912409E+001	9.5040035E-003	-3.0420771E+000	0
6.020599847906851E+001	9.4658202E-003	-2.9893739E+000	0
6.020819847901294E+001	9.3130842E-003	-2.9383252E+000	0
6.021059847895231E+001	9.3321763E-003	-2.8835845E+000	0
6.021299847889168E+001	9.4467280E-003	-2.8319631E+000	0
6.021559847882600E+001	9.3321763E-003	-2.7776680E+000	0
6.021819847876031E+001	9.3703605E-003	-2.7245827E+000	0
6.022079847869463E+001	9.4085438E-003	-2.6745522E+000	0
6.022359847862390E+001	9.4849113E-003	-2.6229944E+000	0
6.022639847855316E+001	9.3703605E-003	-2.5727096E+000	0
6.022939847847738E+001	9.4467280E-003	-2.5194333E+000	0
6.023259847839654E+001	9.4276359E-003	-2.4676843E+000	0
6.023579847831570E+001	9.3894526E-003	-2.4166994E+000	0
6.023919847822981E+001	9.4085438E-003	-2.3646321E+000	0
6.024279847813887E+001	9.4658202E-003	-2.3117375E+000	0
6.024639847804792E+001	9.3894526E-003	-2.2605617E+000	0
6.025039847794687E+001	9.4658202E-003	-2.2081764E+000	0
6.025439847784583E+001	9.3512684E-003	-2.1559184E+000	0
6.025859847773972E+001	9.4085438E-003	-2.1056335E+000	0
6.026299847762857E+001	9.3512684E-003	-2.0540755E+000	0
6.026759847751237E+001	9.3894526E-003	-2.0033450E+000	0
6.027239847739111E+001	9.4085438E-003	-1.9530603E+000	0
6.027739847726480E+001	9.4085438E-003	-1.9024571E+000	0
6.028279847712838E+001	9.3894526E-003	-1.8511537E+000	0
6.028839847698691E+001	9.2558088E-003	-1.8000414E+000	0
6.029439847683534E+001	9.4276359E-003	-1.7481654E+000	0
6.030059847667872E+001	9.3130842E-003	-1.6978804E+000	0
6.030719847651199E+001	9.3703605E-003	-1.6477865E+000	0
6.031419847633515E+001	9.3130842E-003	-1.5971198E+000	0
6.032159847614821E+001	9.3894526E-003	-1.5463258E+000	0
6.032959847594611E+001	9.2939930E-003	-1.4954044E+000	0
6.033799847573391E+001	9.4085438E-003	-1.4451196E+000	0
6.034699847550655E+001	9.3512684E-003	-1.3942618E+000	0
6.035679847525898E+001	9.4658202E-003	-1.3422585E+000	0
6.036719847499626E+001	9.3703605E-003	-1.2919099E+000	0
6.037819847471837E+001	9.4658202E-003	-1.2418160E+000	0
6.038999847442028E+001	9.3894526E-003	-1.1914675E+000	0
6.040299847409187E+001	9.3894526E-003	-1.1404825E+000	0
6.041699847373820E+001	9.3703605E-003	-1.0902613E+000	0
6.043179847336432E+001	9.2939930E-003	-1.0402310E+000	0
6.044879847293487E+001	9.4276359E-003	-9.8988259E-001	0
6.046719847247005E+001	9.3703605E-003	-9.3908852E-001	0
6.048739847195975E+001	9.3703605E-003	-8.8905829E-001	0
6.051039847137872E+001	9.4085438E-003	-8.3845520E-001	0
6.053579847073706E+001	9.5230956E-003	-7.8766114E-001	0
6.056479847000446E+001	9.4085438E-003	-7.3763090E-001	0
6.059799846916576E+001	9.4849113E-003	-6.8747330E-001	0
6.063559846821590E+001	9.3321763E-003	-6.3706112E-001	0
6.067979846709932E+001	9.4276359E-003	-5.8683991E-001	0
6.073219846577558E+001	9.3130842E-003	-5.3680974E-001	0
6.079379846421944E+001	9.4849113E-003	-4.8639753E-001	0
6.087019846228941E+001	9.3894526E-003	-4.3617636E-001	0
6.097459845965204E+001	9.3512684E-003	-3.8480669E-001	0
6.109819845652964E+001	9.5040035E-003	-3.3478901E-001	0
6.126459845232603E+001	9.4085438E-003	-2.8456768E-001	0
6.150139844634396E+001	9.3894526E-003	-2.3424454E-001	0
6.186619843712833E+001	9.3130842E-003	-1.8414411E-001	0
6.250039842110709E+001	9.3703605E-003	-1.3410737E-001	0
6.391099838547234E+001	9.4276359E-003	-8.4064230E-002	0
6.971739823879034E+001	9.4276359E-003	-3.4059323E-002	0
7.971739798616909E+001	9.3321763E-003	-1.7481906E-002	0
8.971739773354784E+001	9.3894526E-003	-1.2064693E-002	0
9.971739748092659E+001	9.2939930E-003	-9.3618110E-003	0
1.097173972283053E+002	9.3703605E-003	-7.8907516E-003	0
1.197173969756841E+002	9.3130842E-003	-6.7575518E-003	0
1.200527969672112E+002	9.3894526E-003	-6.7314645E-003	0