time/s	Ewe/V	I/mA	error	Ece/V	
1.860205753007249E+003	2.6021809E-003	-1.9468355E-001	0	-7.9731789E-004
1.860205953007244E+003	-2.0421398E-004	-1.9597718E-001	0	-2.3611185E-004
1.860206153007239E+003	-1.6238550E-003	-1.9598226E-001	0	-7.6713877E-006
1.860206553007229E+003	-3.0365251E-003	-1.9598226E-001	0	-1.0310966E-004
1.860206953007219E+003	-4.5637358E-003	-1.9598417E-001	0	-2.6759042E-005
1.860207353007208E+003	-5.8045951E-003	-1.9598353E-001	0	3.0503921E-005
1.860207753007198E+003	-7.0836339E-003	-1.9598417E-001	0	-7.6713877E-006
1.860208153007188E+003	-8.1908619E-003	-1.9597971E-001	0	3.0503921E-005
1.860208553007178E+003	-9.2599094E-003	-1.9597971E-001	0	6.8679226E-005
1.860208953007168E+003	-1.0519858E-002	-1.9598226E-001	0	-4.5846697E-005
1.860209353007158E+003	-1.1588906E-002	-1.9597654E-001	0	-4.5846697E-005
1.860209753007148E+003	-1.2600684E-002	-1.9598292E-001	0	1.0685454E-004
1.860210353007133E+003	-1.4108804E-002	-1.9597845E-001	0	-2.6759042E-005
1.860210753007123E+003	-1.5120582E-002	-1.9598036E-001	0	-7.6713877E-006
1.860211153007112E+003	-1.6227810E-002	-1.9598483E-001	0	3.0503921E-005
1.860211753007097E+003	-1.7621389E-002	-1.9598101E-001	0	4.9591574E-005
1.860212353007082E+003	-1.9053150E-002	-1.9598292E-001	0	6.8679226E-005
1.860212753007072E+003	-2.0064928E-002	-1.9598673E-001	0	6.8679226E-005
1.860213353007057E+003	-2.1477597E-002	-1.9598101E-001	0	-2.6759042E-005
1.860213953007042E+003	-2.2871178E-002	-1.9597845E-001	0	4.9591574E-005
1.860214553007027E+003	-2.4283847E-002	-1.9598101E-001	0	-4.5846697E-005
1.860215153007011E+003	-2.5505615E-002	-1.9598226E-001	0	6.8679226E-005
1.860215753006996E+003	-2.6880106E-002	-1.9598353E-001	0	-6.4934356E-005
1.860216353006981E+003	-2.8082784E-002	-1.9597463E-001	0	-4.5846697E-005
1.860216753006971E+003	-2.9151833E-002	-1.9598353E-001	0	-1.2219732E-004
1.860217353006956E+003	-3.0297240E-002	-1.9598544E-001	0	-8.4022009E-005
1.860217953006941E+003	-3.1576280E-002	-1.9598927E-001	0	1.0685454E-004
1.860218553006926E+003	-3.2874409E-002	-1.9598608E-001	0	1.4502984E-004
1.860219153006910E+003	-3.4134358E-002	-1.9598162E-001	0	-7.6713877E-006
1.860219753006895E+003	-3.5356127E-002	-1.9598226E-001	0	6.8679226E-005
1.860220353006880E+003	-3.6520623E-002	-1.9598673E-001	0	-2.6759042E-005
1.860220953006865E+003	-3.7742391E-002	-1.9598864E-001	0	-1.0310966E-004
1.860221553006850E+003	-3.8925983E-002	-1.9598101E-001	0	3.0503921E-005
1.860222153006835E+003	-3.9956849E-002	-1.9597909E-001	0	3.0503921E-005
1.860222753006819E+003	-4.1083168E-002	-1.9598226E-001	0	1.1416267E-005
1.860223353006804E+003	-4.2457659E-002	-1.9598292E-001	0	-2.6759042E-005
1.860223953006789E+003	-4.3583974E-002	-1.9597781E-001	0	1.1416267E-005
1.860224553006774E+003	-4.4633932E-002	-1.9598736E-001	0	-6.4934356E-005
1.860225153006759E+003	-4.5702979E-002	-1.9598417E-001	0	1.0685454E-004
1.860225753006744E+003	-4.6867479E-002	-1.9598417E-001	0	-8.4022009E-005
1.860226353006728E+003	-4.7955617E-002	-1.9598798E-001	0	-6.4934356E-005
1.860227153006708E+003	-4.9291927E-002	-1.9598417E-001	0	-1.4128498E-004
1.860227753006693E+003	-5.0360974E-002	-1.9598353E-001	0	-1.0310966E-004
1.860228353006678E+003	-5.1449113E-002	-1.9597909E-001	0	4.9591574E-005
1.860229153006658E+003	-5.2785423E-002	-1.9598417E-001	0	-4.5846697E-005
1.860229753006643E+003	-5.3835377E-002	-1.9598353E-001	0	8.7766879E-005
1.860230353006627E+003	-5.4904427E-002	-1.9598101E-001	0	3.0503921E-005
1.860230953006612E+003	-5.5973474E-002	-1.9598162E-001	0	-7.6713877E-006
1.860231753006592E+003	-5.7195242E-002	-1.9598292E-001	0	3.0503921E-005
1.860232353006577E+003	-5.8264289E-002	-1.9598544E-001	0	-8.4022009E-005
1.860233153006557E+003	-5.9619691E-002	-1.9598101E-001	0	-2.6759042E-005
1.860233953006536E+003	-6.0956001E-002	-1.9598036E-001	0	4.9591574E-005
1.860234753006516E+003	-6.2254131E-002	-1.9598162E-001	0	-2.6759042E-005
1.860235553006496E+003	-6.3494988E-002	-1.9598736E-001	0	3.0503921E-005
1.860236353006476E+003	-6.4659484E-002	-1.9598608E-001	0	6.8679226E-005
1.860237153006456E+003	-6.5862164E-002	-1.9598292E-001	0	-6.4934356E-005
1.860237753006440E+003	-6.6873938E-002	-1.9598226E-001	0	4.9591574E-005
1.860238553006420E+003	-6.8114802E-002	-1.9598673E-001	0	1.2594218E-004
1.860239353006400E+003	-6.9145665E-002	-1.9598162E-001	0	1.6411749E-004
1.860240153006380E+003	-7.0424706E-002	-1.9598989E-001	0	-1.9854793E-004
1.860240953006360E+003	-7.1455576E-002	-1.9598036E-001	0	1.1416267E-005
1.860241753006339E+003	-7.2734609E-002	-1.9597909E-001	0	4.9591574E-005
1.860242553006319E+003	-7.3956385E-002	-1.9597781E-001	0	1.1416267E-005
1.860243553006294E+003	-7.5349964E-002	-1.9597909E-001	0	3.0503921E-005
1.860244553006269E+003	-7.6648094E-002	-1.9597909E-001	0	6.8679226E-005
1.860245353006248E+003	-7.7812590E-002	-1.9598417E-001	0	-4.5846697E-005
1.860246153006228E+003	-7.8824364E-002	-1.9598353E-001	0	1.1416267E-005
1.860246953006208E+003	-8.0027044E-002	-1.9597718E-001	0	4.9591574E-005
1.860247753006188E+003	-8.1057914E-002	-1.9598544E-001	0	-4.5846697E-005
1.860248753006163E+003	-8.2279682E-002	-1.9598483E-001	0	6.8679226E-005
1.860249553006142E+003	-8.3329640E-002	-1.9598292E-001	0	-8.4022009E-005
1.860250353006122E+003	-8.4341414E-002	-1.9598673E-001	0	3.0503921E-005
1.860251153006102E+003	-8.5372284E-002	-1.9598544E-001	0	-6.4934356E-005
1.860251953006082E+003	-8.6422242E-002	-1.9598544E-001	0	-7.6713877E-006
1.860252953006056E+003	-8.7701283E-002	-1.9597909E-001	0	3.0503921E-005
1.860253753006036E+003	-8.8751242E-002	-1.9598417E-001	0	3.0503921E-005
1.860254753006011E+003	-8.9782104E-002	-1.9598353E-001	0	1.1416267E-005
1.860255753005986E+003	-9.0965696E-002	-1.9597971E-001	0	3.0503921E-005
1.860256753005960E+003	-9.2206553E-002	-1.9598292E-001	0	1.0685454E-004
1.860257753005935E+003	-9.3237422E-002	-1.9598162E-001	0	-7.6713877E-006
1.860258753005910E+003	-9.4440103E-002	-1.9597971E-001	0	6.8679226E-005
1.860259753005885E+003	-9.5490053E-002	-1.9597971E-001	0	-7.6713877E-006
1.860260753005859E+003	-9.6654557E-002	-1.9598226E-001	0	6.8679226E-005
1.860261753005834E+003	-9.7780876E-002	-1.9598162E-001	0	-8.4022009E-005
1.860262753005809E+003	-9.8849922E-002	-1.9598226E-001	0	1.1416267E-005
1.860263953005779E+003	-1.0009078E-001	-1.9598292E-001	0	-2.6759042E-005
1.860265153005748E+003	-1.0127437E-001	-1.9597845E-001	0	6.8679226E-005
1.860266353005718E+003	-1.0251523E-001	-1.9598353E-001	0	1.0685454E-004
1.860267353005693E+003	-1.0358427E-001	-1.9598417E-001	0	4.9591574E-005
1.860268553005662E+003	-1.0461514E-001	-1.9598673E-001	0	-4.5846697E-005
1.860269553005637E+003	-1.0568419E-001	-1.9598673E-001	0	-4.5846697E-005
1.860270753005607E+003	-1.0673415E-001	-1.9598226E-001	0	-6.4934356E-005
1.860271953005577E+003	-1.0787956E-001	-1.9598292E-001	0	4.9591574E-005
1.860273153005546E+003	-1.0902496E-001	-1.9598483E-001	0	-4.5846697E-005
1.860274353005516E+003	-1.1026582E-001	-1.9598417E-001	0	1.1416267E-005
1.860275753005481E+003	-1.1133487E-001	-1.9599055E-001	0	-7.6713877E-006
1.860276753005455E+003	-1.1236574E-001	-1.9598292E-001	0	1.0685454E-004
1.860278153005420E+003	-1.1343478E-001	-1.9598292E-001	0	1.4502984E-004
1.860279353005390E+003	-1.1450383E-001	-1.9598292E-001	0	-1.0310966E-004
1.860280753005354E+003	-1.1566833E-001	-1.9598544E-001	0	-7.6713877E-006
1.860281953005324E+003	-1.1668011E-001	-1.9598673E-001	0	4.9591574E-005
1.860283553005283E+003	-1.1794006E-001	-1.9598736E-001	0	-2.6759042E-005
1.860284953005248E+003	-1.1904728E-001	-1.9598544E-001	0	-2.6759042E-005
1.860286353005213E+003	-1.2015451E-001	-1.9598036E-001	0	4.9591574E-005
1.860287753005177E+003	-1.2116629E-001	-1.9598608E-001	0	1.1416267E-005
1.860289353005137E+003	-1.2231170E-001	-1.9598101E-001	0	-7.6713877E-006
1.860290953005097E+003	-1.2347620E-001	-1.9597971E-001	0	-4.5846697E-005
1.860292353005061E+003	-1.2452616E-001	-1.9598353E-001	0	-8.4022009E-005
1.860294153005016E+003	-1.2572883E-001	-1.9598162E-001	0	3.0503921E-005
1.860295753004975E+003	-1.2675969E-001	-1.9598292E-001	0	1.1416267E-005
1.860297353004935E+003	-1.2777148E-001	-1.9598101E-001	0	1.1416267E-005
1.860299153004889E+003	-1.2901233E-001	-1.9598736E-001	0	3.0503921E-005
1.860300953004844E+003	-1.3008139E-001	-1.9597781E-001	0	-6.4934356E-005
1.860302753004798E+003	-1.3118862E-001	-1.9598608E-001	0	-7.6713877E-006
1.860304553004753E+003	-1.3225766E-001	-1.9598544E-001	0	-4.5846697E-005
1.860306553004702E+003	-1.3330762E-001	-1.9598673E-001	0	-7.6713877E-006
1.860308153004662E+003	-1.3435757E-001	-1.9598798E-001	0	6.8679226E-005
1.860309953004617E+003	-1.3540754E-001	-1.9598226E-001	0	4.9591574E-005
1.860311953004566E+003	-1.3643840E-001	-1.9598483E-001	0	-7.6713877E-006
1.860314153004510E+003	-1.3758381E-001	-1.9598483E-001	0	-6.4934356E-005
1.860316353004455E+003	-1.3863376E-001	-1.9598417E-001	0	8.7766879E-005
1.860318553004399E+003	-1.3981736E-001	-1.9598162E-001	0	4.9591574E-005
1.860320753004344E+003	-1.4086731E-001	-1.9598353E-001	0	-2.6759042E-005
1.860323153004283E+003	-1.4191727E-001	-1.9598544E-001	0	-6.4934356E-005
1.860325553004222E+003	-1.4302449E-001	-1.9598608E-001	0	1.1416267E-005
1.860327753004167E+003	-1.4409354E-001	-1.9598544E-001	0	-7.6713877E-006
1.860330753004091E+003	-1.4516260E-001	-1.9598864E-001	0	6.8679226E-005
1.860333553004020E+003	-1.4630800E-001	-1.9598417E-001	0	1.1416267E-005
1.860336353003950E+003	-1.4743432E-001	-1.9598864E-001	0	-8.4022009E-005
1.860339353003874E+003	-1.4844610E-001	-1.9598544E-001	0	4.9591574E-005
1.860341753003813E+003	-1.4945787E-001	-1.9597909E-001	0	-7.6713877E-006
1.860344753003737E+003	-1.5046965E-001	-1.9597971E-001	0	6.8679226E-005
1.860347953003657E+003	-1.5151961E-001	-1.9598673E-001	0	-4.5846697E-005
1.860351553003566E+003	-1.5258865E-001	-1.9598417E-001	0	4.9591574E-005
1.860355353003470E+003	-1.5375315E-001	-1.9598483E-001	0	6.8679226E-005
1.860359353003369E+003	-1.5478402E-001	-1.9598417E-001	0	1.2594218E-004
1.860363153003273E+003	-1.5585306E-001	-1.9597971E-001	0	-2.6759042E-005
1.860367753003156E+003	-1.5690303E-001	-1.9598483E-001	0	-4.5846697E-005
1.860372953003025E+003	-1.5797207E-001	-1.9597781E-001	0	-2.6759042E-005
1.860378953002873E+003	-1.5906021E-001	-1.9598292E-001	0	8.7766879E-005
1.860385953002697E+003	-1.6007198E-001	-1.9598864E-001	0	1.1416267E-005
1.860414353001979E+003	-1.5898386E-001	-1.9598736E-001	0	1.1416267E-005
1.860418353001878E+003	-1.5793389E-001	-1.9598544E-001	0	-7.6713877E-006
1.860421353001802E+003	-1.5684575E-001	-1.9598483E-001	0	3.0503921E-005
1.860424353001727E+003	-1.5573853E-001	-1.9598673E-001	0	-6.4934356E-005
1.860426753001666E+003	-1.5465039E-001	-1.9598483E-001	0	1.1416267E-005
1.860428953001610E+003	-1.5360042E-001	-1.9598226E-001	0	-8.4022009E-005
1.860431153001555E+003	-1.5245502E-001	-1.9598036E-001	0	-4.5846697E-005
1.860433353001499E+003	-1.5132870E-001	-1.9598608E-001	0	1.1416267E-005
1.860434953001459E+003	-1.5027875E-001	-1.9598162E-001	0	-4.5846697E-005
1.860436953001408E+003	-1.4920969E-001	-1.9599055E-001	0	-4.5846697E-005
1.860438553001368E+003	-1.4812157E-001	-1.9598608E-001	0	-7.6713877E-006
1.860440353001322E+003	-1.4703342E-001	-1.9598226E-001	0	-4.5846697E-005
1.860441753001287E+003	-1.4600256E-001	-1.9598162E-001	0	1.1416267E-005
1.860443153001252E+003	-1.4499077E-001	-1.9598736E-001	0	3.0503921E-005
1.860444953001206E+003	-1.4374992E-001	-1.9598353E-001	0	-1.0310966E-004
1.860446953001156E+003	-1.4262360E-001	-1.9598544E-001	0	3.0503921E-005
1.860448353001120E+003	-1.4159274E-001	-1.9598544E-001	0	3.0503921E-005
1.860449953001080E+003	-1.4048551E-001	-1.9598162E-001	0	1.0685454E-004
1.860451553001039E+003	-1.3934010E-001	-1.9597718E-001	0	-4.5846697E-005
1.860453153000999E+003	-1.3817561E-001	-1.9598417E-001	0	1.0685454E-004
1.860454753000959E+003	-1.3716382E-001	-1.9598544E-001	0	3.0503921E-005
1.860455953000928E+003	-1.3615204E-001	-1.9597971E-001	0	1.1416267E-005
1.860457353000893E+003	-1.3508300E-001	-1.9598162E-001	0	-7.6713877E-006
1.860458953000852E+003	-1.3405213E-001	-1.9598101E-001	0	-6.4934356E-005
1.860460553000812E+003	-1.3298309E-001	-1.9598292E-001	0	4.9591574E-005
1.860461953000777E+003	-1.3191403E-001	-1.9597781E-001	0	-8.4022009E-005
1.860463553000736E+003	-1.3073045E-001	-1.9598798E-001	0	-7.6713877E-006
1.860465153000696E+003	-1.2962322E-001	-1.9598226E-001	0	1.1416267E-005
1.860466553000661E+003	-1.2857325E-001	-1.9598417E-001	0	-7.6713877E-006
1.860468353000615E+003	-1.2738967E-001	-1.9598226E-001	0	-4.5846697E-005
1.860469953000575E+003	-1.2628244E-001	-1.9598483E-001	0	3.0503921E-005
1.860471553000534E+003	-1.2507977E-001	-1.9598608E-001	0	-7.6713877E-006
1.860473353000489E+003	-1.2393436E-001	-1.9598226E-001	0	1.1416267E-005
1.860475153000443E+003	-1.2280805E-001	-1.9598608E-001	0	4.9591574E-005
1.860476753000403E+003	-1.2170082E-001	-1.9597781E-001	0	-1.2219732E-004
1.860478353000362E+003	-1.2068903E-001	-1.9598226E-001	0	1.6411749E-004
1.860480153000317E+003	-1.1956272E-001	-1.9598483E-001	0	4.9591574E-005
1.860481753000277E+003	-1.1847458E-001	-1.9598292E-001	0	1.0685454E-004
1.860483753000226E+003	-1.1736736E-001	-1.9597971E-001	0	-4.5846697E-005
1.860485553000181E+003	-1.1618377E-001	-1.9598353E-001	0	3.0503921E-005
1.860487553000130E+003	-1.1501927E-001	-1.9597971E-001	0	-2.6759042E-005
1.860489353000085E+003	-1.1396931E-001	-1.9598544E-001	0	-4.5846697E-005
1.860491353000034E+003	-1.1282390E-001	-1.9598544E-001	0	1.0685454E-004
1.860493352999983E+003	-1.1165940E-001	-1.9598226E-001	0	1.2594218E-004
1.860495152999938E+003	-1.1064763E-001	-1.9598353E-001	0	-8.4022009E-005
1.860497152999887E+003	-1.0961676E-001	-1.9598483E-001	0	-7.6713877E-006
1.860499352999832E+003	-1.0847135E-001	-1.9598353E-001	0	6.8679226E-005
1.860501752999771E+003	-1.0730685E-001	-1.9598417E-001	0	-2.6759042E-005
1.860503952999716E+003	-1.0614236E-001	-1.9598417E-001	0	-2.6759042E-005
1.860506352999655E+003	-1.0505421E-001	-1.9598292E-001	0	1.1416267E-005
1.860508752999594E+003	-1.0388972E-001	-1.9598292E-001	0	-2.6759042E-005
1.860511152999534E+003	-1.0285885E-001	-1.9597909E-001	0	1.1416267E-005
1.860513752999468E+003	-1.0173253E-001	-1.9597781E-001	0	-7.6713877E-006
1.860516352999402E+003	-1.0072076E-001	-1.9598673E-001	0	1.0685454E-004
1.860518752999342E+003	-9.9613525E-002	-1.9598989E-001	0	-7.6713877E-006
1.860521552999271E+003	-9.8601751E-002	-1.9598544E-001	0	-6.4934356E-005
1.860524352999200E+003	-9.7551793E-002	-1.9598864E-001	0	6.8679226E-005
1.860527352999125E+003	-9.6425474E-002	-1.9598353E-001	0	-2.6759042E-005
1.860531152999029E+003	-9.5241882E-002	-1.9598226E-001	0	-7.6713877E-006
1.860534552998943E+003	-9.4115570E-002	-1.9598353E-001	0	1.1416267E-005
1.860537952998857E+003	-9.3008339E-002	-1.9598483E-001	0	3.0503921E-005
1.860541952998756E+003	-9.1939293E-002	-1.9598608E-001	0	-2.6759042E-005
1.860545952998655E+003	-9.0889335E-002	-1.9598226E-001	0	8.7766879E-005
1.860549952998554E+003	-8.9801192E-002	-1.9598608E-001	0	-4.5846697E-005
1.860553952998453E+003	-8.8770330E-002	-1.9598292E-001	0	1.1416267E-005
1.860558552998336E+003	-8.7758549E-002	-1.9598036E-001	0	-2.6759042E-005
1.860563552998210E+003	-8.6727686E-002	-1.9598673E-001	0	-2.6759042E-005
1.860569152998069E+003	-8.5620455E-002	-1.9598353E-001	0	1.1416267E-005
1.860574952997922E+003	-8.4532320E-002	-1.9598226E-001	0	4.9591574E-005
1.860581352997760E+003	-8.3482362E-002	-1.9597971E-001	0	-7.6713877E-006
1.860588352997584E+003	-8.2451493E-002	-1.9598292E-001	0	3.0503921E-005
1.860595352997407E+003	-8.1401534E-002	-1.9597971E-001	0	6.8679226E-005
1.860603752997195E+003	-8.0389760E-002	-1.9597654E-001	0	-2.6759042E-005
1.860612552996972E+003	-7.9377979E-002	-1.9598608E-001	0	-4.5846697E-005
1.860623352996699E+003	-7.8366205E-002	-1.9598292E-001	0	-8.4022009E-005
1.860633752996437E+003	-7.7354424E-002	-1.9598162E-001	0	1.1416267E-005
1.860645552996139E+003	-7.6342650E-002	-1.9598226E-001	0	3.0503921E-005
1.860661952995724E+003	-7.5273603E-002	-1.9598608E-001	0	-2.6759042E-005
1.860679752995275E+003	-7.4204557E-002	-1.9598417E-001	0	-6.4934356E-005
1.860698952994790E+003	-7.3192775E-002	-1.9598226E-001	0	1.1416267E-005
1.860723152994178E+003	-7.2181001E-002	-1.9597781E-001	0	-4.5846697E-005
1.860754352993390E+003	-7.1150132E-002	-1.9598544E-001	0	-2.6759042E-005
1.860788352992531E+003	-7.0119262E-002	-1.9598292E-001	0	-6.4934356E-005
1.860827952991531E+003	-6.9107488E-002	-1.9598483E-001	0	6.8679226E-005
1.860894752989843E+003	-6.8057530E-002	-1.9597718E-001	0	-4.5846697E-005
1.860971152987913E+003	-6.6969395E-002	-1.9598798E-001	0	1.1416267E-005
1.861087152984983E+003	-6.5938525E-002	-1.9598353E-001	0	6.8679226E-005
1.861249952980870E+003	-6.4926744E-002	-1.9597971E-001	0	-7.6713877E-006
1.861599752972033E+003	-6.3895881E-002	-1.9598036E-001	0	1.1416267E-005
1.864738752892736E+003	-6.4907655E-002	-1.9598292E-001	0	-2.6759042E-005
1.866078552858889E+003	-6.5919437E-002	-1.9598989E-001	0	1.1416267E-005
1.867499152823002E+003	-6.6950299E-002	-1.9598544E-001	0	-2.6759042E-005
1.868858552788661E+003	-6.8000257E-002	-1.9598292E-001	0	3.0503921E-005
1.870522752746620E+003	-6.9031127E-002	-1.9598673E-001	0	3.0503921E-005
1.872178552704790E+003	-7.0042901E-002	-1.9598736E-001	0	1.2594218E-004
1.873904152661198E+003	-7.1073771E-002	-1.9597909E-001	0	4.9591574E-005
1.876023952607648E+003	-7.2085552E-002	-1.9598736E-001	0	1.1416267E-005
1.878230352551909E+003	-7.3097326E-002	-1.9598864E-001	0	4.9591574E-005
1.880830752486218E+003	-7.4128196E-002	-1.9598544E-001	0	-6.4934356E-005
1.883702352413675E+003	-7.5139970E-002	-1.9598292E-001	0	1.2594218E-004
1.887360152321271E+003	-7.6189928E-002	-1.9598608E-001	0	1.0685454E-004
1.891695752211745E+003	-7.7220798E-002	-1.9598798E-001	0	3.0503921E-005
1.896205552097817E+003	-7.7793501E-002	-1.9598736E-001	0	1.8320515E-004