time/s	Ewe/V	I/mA	error	Ece/V	
1.860205753007249E+003	2.5789468E-003	-1.9479871E-001	0	-2.3683166E-004
1.860205953007244E+003	-3.0788756E-004	-1.9599679E-001	0	-4.7737360E-004
1.860206153007239E+003	-1.5888810E-003	-1.9600061E-001	0	-1.3504496E-005
1.860206553007229E+003	-2.6962110E-003	-1.9599807E-001	0	-3.2594202E-005
1.860207153007213E+003	-3.9562760E-003	-1.9599615E-001	0	6.2854328E-005
1.860207753007198E+003	-4.9681463E-003	-1.9599298E-001	0	-7.0773618E-005
1.860208353007183E+003	-5.9991088E-003	-1.9599807E-001	0	-5.1683910E-005
1.860208953007168E+003	-7.0300712E-003	-1.9599807E-001	0	6.2854328E-005
1.860209753007148E+003	-8.0419416E-003	-1.9599362E-001	0	6.2854328E-005
1.860210553007128E+003	-9.1110878E-003	-1.9599107E-001	0	2.4674917E-005
1.860211353007107E+003	-1.0218418E-002	-1.9599043E-001	0	-1.3504496E-005
1.860212353007082E+003	-1.1459391E-002	-1.9599298E-001	0	-7.0773618E-005
1.860213353007057E+003	-1.2643089E-002	-1.9599171E-001	0	-1.3504496E-005
1.860214553007027E+003	-1.3750419E-002	-1.9600061E-001	0	4.3764623E-005
1.860215353007006E+003	-1.4762289E-002	-1.9599552E-001	0	-8.9863323E-005
1.860216553006976E+003	-1.5965078E-002	-1.9599298E-001	0	-7.0773618E-005
1.860217553006951E+003	-1.6976949E-002	-1.9599743E-001	0	2.4674917E-005
1.860218553006926E+003	-1.8027002E-002	-1.9599043E-001	0	6.2854328E-005
1.860219753006895E+003	-1.9038873E-002	-1.9599807E-001	0	5.5852106E-006
1.860220953006865E+003	-2.0241663E-002	-1.9599488E-001	0	4.3764623E-005
1.860222353006830E+003	-2.1482635E-002	-1.9599424E-001	0	-1.3504496E-005
1.860223553006799E+003	-2.2628149E-002	-1.9599488E-001	0	1.9648227E-004
1.860224953006764E+003	-2.3830939E-002	-1.9599234E-001	0	5.5852106E-006
1.860226153006734E+003	-2.4976453E-002	-1.9599615E-001	0	2.4674917E-005
1.860227753006693E+003	-2.6255609E-002	-1.9599679E-001	0	5.5852106E-006
1.860229153006658E+003	-2.7362941E-002	-1.9599424E-001	0	5.5852106E-006
1.860230553006622E+003	-2.8546637E-002	-1.9599234E-001	0	-1.3504496E-005
1.860231953006587E+003	-2.9558508E-002	-1.9599807E-001	0	-7.0773618E-005
1.860233153006557E+003	-3.0742206E-002	-1.9599743E-001	0	4.3764623E-005
1.860234753006516E+003	-3.1773169E-002	-1.9599615E-001	0	5.5852106E-006
1.860235953006486E+003	-3.2956865E-002	-1.9599488E-001	0	4.3764623E-005
1.860237753006440E+003	-3.4083288E-002	-1.9599807E-001	0	5.5852106E-006
1.860238953006410E+003	-3.5209708E-002	-1.9599234E-001	0	4.3764623E-005
1.860240553006370E+003	-3.6355224E-002	-1.9600061E-001	0	8.1944032E-005
1.860242153006329E+003	-3.7462551E-002	-1.9599870E-001	0	-5.1683910E-005
1.860243353006299E+003	-3.8474422E-002	-1.9599488E-001	0	6.2854328E-005
1.860244953006259E+003	-3.9562661E-002	-1.9599298E-001	0	1.3921315E-004
1.860246753006213E+003	-4.0880002E-002	-1.9599424E-001	0	-1.4713245E-004
1.860248353006173E+003	-4.1968241E-002	-1.9599679E-001	0	-3.2594202E-005
1.860249953006132E+003	-4.3056477E-002	-1.9599552E-001	0	-3.2594202E-005
1.860251153006102E+003	-4.4068348E-002	-1.9599298E-001	0	8.1944032E-005
1.860252953006056E+003	-4.5271140E-002	-1.9599298E-001	0	-3.2594202E-005
1.860254553006016E+003	-4.6283010E-002	-1.9598790E-001	0	-5.1683910E-005
1.860256153005976E+003	-4.7371246E-002	-1.9599679E-001	0	5.5852106E-006
1.860257753005935E+003	-4.8516762E-002	-1.9599234E-001	0	1.0103374E-004
1.860259353005895E+003	-4.9547724E-002	-1.9599043E-001	0	4.3764623E-005
1.860261153005849E+003	-5.0807789E-002	-1.9599171E-001	0	4.3764623E-005
1.860263153005799E+003	-5.2125130E-002	-1.9599234E-001	0	1.0103374E-004
1.860264953005753E+003	-5.3194273E-002	-1.9599615E-001	0	-1.4713245E-004
1.860266553005713E+003	-5.4206144E-002	-1.9599679E-001	0	-1.3504496E-005
1.860268153005673E+003	-5.5237107E-002	-1.9599298E-001	0	-5.1683910E-005
1.860269753005632E+003	-5.6268070E-002	-1.9599424E-001	0	-3.2594202E-005
1.860271353005592E+003	-5.7279941E-002	-1.9599424E-001	0	-2.0440157E-004
1.860273153005546E+003	-5.8349088E-002	-1.9599107E-001	0	6.2854328E-005
1.860274953005501E+003	-5.9570968E-002	-1.9599743E-001	0	6.2854328E-005
1.860276953005450E+003	-6.0773756E-002	-1.9599870E-001	0	1.0103374E-004
1.860278753005405E+003	-6.1842903E-002	-1.9599870E-001	0	-1.4713245E-004
1.860280553005359E+003	-6.2912047E-002	-1.9599679E-001	0	1.2012345E-004
1.860282353005314E+003	-6.3962102E-002	-1.9599615E-001	0	-7.0773618E-005
1.860284153005268E+003	-6.5050341E-002	-1.9599362E-001	0	-5.1683910E-005
1.860285953005223E+003	-6.6138580E-002	-1.9599362E-001	0	-8.9863323E-005
1.860287753005177E+003	-6.7150451E-002	-1.9599362E-001	0	6.2854328E-005
1.860289553005132E+003	-6.8162322E-002	-1.9599679E-001	0	1.0103374E-004
1.860291753005076E+003	-6.9460571E-002	-1.9599298E-001	0	-7.0773618E-005
1.860293953005021E+003	-7.0663355E-002	-1.9599615E-001	0	4.3764623E-005
1.860295953004970E+003	-7.1713410E-002	-1.9599552E-001	0	-5.1683910E-005
1.860297953004920E+003	-7.2916202E-002	-1.9599934E-001	0	-1.2804274E-004
1.860299953004869E+003	-7.3985346E-002	-1.9600315E-001	0	-3.2594202E-005
1.860301953004819E+003	-7.5016312E-002	-1.9599488E-001	0	-3.2594202E-005
1.860303953004768E+003	-7.6104552E-002	-1.9599362E-001	0	-8.9863323E-005
1.860305953004718E+003	-7.7173695E-002	-1.9599615E-001	0	-5.1683910E-005
1.860307953004667E+003	-7.8261934E-002	-1.9599234E-001	0	-7.0773618E-005
1.860310153004611E+003	-7.9464726E-002	-1.9599424E-001	0	6.2854328E-005
1.860312353004556E+003	-8.0476590E-002	-1.9599298E-001	0	2.4674917E-005
1.860314353004505E+003	-8.1526645E-002	-1.9600061E-001	0	-3.2594202E-005
1.860316353004455E+003	-8.2576700E-002	-1.9600061E-001	0	-1.0895303E-004
1.860318753004394E+003	-8.3741307E-002	-1.9599679E-001	0	2.4674917E-005
1.860320953004339E+003	-8.4829547E-002	-1.9599934E-001	0	1.2012345E-004
1.860322953004288E+003	-8.5841417E-002	-1.9599488E-001	0	8.1944032E-005
1.860325353004228E+003	-8.6967841E-002	-1.9599679E-001	0	1.2012345E-004
1.860327353004177E+003	-8.8036984E-002	-1.9599298E-001	0	-3.2594202E-005
1.860329753004116E+003	-8.9048855E-002	-1.9599615E-001	0	-5.1683910E-005
1.860331753004066E+003	-9.0098910E-002	-1.9599743E-001	0	-5.1683910E-005
1.860334353004000E+003	-9.1148965E-002	-1.9599615E-001	0	-8.9863323E-005
1.860336353003950E+003	-9.2218108E-002	-1.9599488E-001	0	-5.1683910E-005
1.860338953003884E+003	-9.3325436E-002	-1.9599679E-001	0	2.4674917E-005
1.860341153003828E+003	-9.4413675E-002	-1.9599615E-001	0	1.5830285E-004
1.860343953003758E+003	-9.5597371E-002	-1.9599807E-001	0	6.2854328E-005
1.860346353003697E+003	-9.6781075E-002	-1.9600189E-001	0	6.2854328E-005
1.860349153003626E+003	-9.7812034E-002	-1.9599743E-001	0	-1.4713245E-004
1.860351553003566E+003	-9.8957546E-002	-1.9599043E-001	0	-1.3504496E-005
1.860354153003500E+003	-1.0002670E-001	-1.9599615E-001	0	2.4674917E-005
1.860356753003434E+003	-1.0105766E-001	-1.9599107E-001	0	1.3921315E-004
1.860359153003374E+003	-1.0220317E-001	-1.9599615E-001	0	2.4674917E-005
1.860362153003298E+003	-1.0340596E-001	-1.9599234E-001	0	6.2854328E-005
1.860364953003227E+003	-1.0451329E-001	-1.9599488E-001	0	-3.2594202E-005
1.860367753003156E+003	-1.0562062E-001	-1.9599552E-001	0	4.3764623E-005
1.860370753003081E+003	-1.0678522E-001	-1.9600061E-001	0	5.5852106E-006
1.860373753003005E+003	-1.0783528E-001	-1.9599552E-001	0	5.5852106E-006
1.860376153002944E+003	-1.0894261E-001	-1.9599934E-001	0	-3.2594202E-005
1.860379153002868E+003	-1.1001176E-001	-1.9599870E-001	0	-1.4713245E-004
1.860382153002793E+003	-1.1113818E-001	-1.9599934E-001	0	-5.1683910E-005
1.860384953002722E+003	-1.1216914E-001	-1.9599488E-001	0	-5.1683910E-005
1.860387953002646E+003	-1.1329556E-001	-1.9599362E-001	0	1.0103374E-004
1.860390953002570E+003	-1.1432652E-001	-1.9599998E-001	0	-1.3504496E-005
1.860393753002500E+003	-1.1537658E-001	-1.9599679E-001	0	-5.1683910E-005
1.860396753002424E+003	-1.1638845E-001	-1.9599234E-001	0	-1.3504496E-005
1.860399953002343E+003	-1.1740032E-001	-1.9599934E-001	0	-7.0773618E-005
1.860402753002272E+003	-1.1846947E-001	-1.9599298E-001	0	-3.2594202E-005
1.860406353002181E+003	-1.1950043E-001	-1.9599552E-001	0	4.3764623E-005
1.860409153002111E+003	-1.2056957E-001	-1.9599362E-001	0	-7.0773618E-005
1.860412553002025E+003	-1.2160054E-001	-1.9599234E-001	0	-3.2594202E-005
1.860415553001949E+003	-1.2261241E-001	-1.9599998E-001	0	-5.1683910E-005
1.860419153001858E+003	-1.2373883E-001	-1.9599488E-001	0	4.3764623E-005
1.860422353001777E+003	-1.2480798E-001	-1.9599298E-001	0	5.5852106E-006
1.860425953001686E+003	-1.2585802E-001	-1.9599488E-001	0	5.5852106E-006
1.860429953001585E+003	-1.2700354E-001	-1.9599615E-001	0	6.2854328E-005
1.860433753001489E+003	-1.2812996E-001	-1.9599998E-001	0	-5.1683910E-005
1.860437353001398E+003	-1.2918001E-001	-1.9599234E-001	0	5.5852106E-006
1.860440953001307E+003	-1.3019189E-001	-1.9599552E-001	0	6.2854328E-005
1.860444753001211E+003	-1.3135649E-001	-1.9599679E-001	0	-5.1683910E-005
1.860449153001100E+003	-1.3248292E-001	-1.9599807E-001	0	-7.0773618E-005
1.860453553000989E+003	-1.3362843E-001	-1.9599234E-001	0	2.4674917E-005
1.860457553000888E+003	-1.3473576E-001	-1.9599934E-001	0	-3.2594202E-005
1.860461753000782E+003	-1.3578582E-001	-1.9599552E-001	0	-8.9863323E-005
1.860466353000666E+003	-1.3683587E-001	-1.9599552E-001	0	5.5852106E-006
1.860470553000559E+003	-1.3790502E-001	-1.9599552E-001	0	5.5852106E-006
1.860474953000448E+003	-1.3893598E-001	-1.9599870E-001	0	6.2854328E-005
1.860478753000352E+003	-1.3994785E-001	-1.9599615E-001	0	-1.3504496E-005
1.860484353000211E+003	-1.4113155E-001	-1.9599615E-001	0	8.1944032E-005
1.860489353000085E+003	-1.4214341E-001	-1.9599171E-001	0	5.5852106E-006
1.860493752999973E+003	-1.4315529E-001	-1.9599234E-001	0	1.0103374E-004
1.860498352999857E+003	-1.4416716E-001	-1.9599298E-001	0	-3.2594202E-005
1.860503152999736E+003	-1.4521721E-001	-1.9599107E-001	0	2.4674917E-005
1.860508752999594E+003	-1.4626727E-001	-1.9599488E-001	0	-3.2594202E-005
1.860514352999453E+003	-1.4729823E-001	-1.9599488E-001	0	-3.2594202E-005
1.860520152999306E+003	-1.4831010E-001	-1.9599362E-001	0	4.3764623E-005
1.860526152999155E+003	-1.4943652E-001	-1.9599870E-001	0	-1.3504496E-005
1.860533152998978E+003	-1.5046749E-001	-1.9599552E-001	0	1.5830285E-004
1.860540152998801E+003	-1.5147935E-001	-1.9599870E-001	0	-5.1683910E-005
1.860547152998624E+003	-1.5249123E-001	-1.9599870E-001	0	6.2854328E-005
1.860554952998427E+003	-1.5352218E-001	-1.9599679E-001	0	-1.3504496E-005
1.860566552998134E+003	-1.5453406E-001	-1.9599679E-001	0	-3.2594202E-005
1.860614752996917E+003	-1.5352218E-001	-1.9599362E-001	0	-3.2594202E-005
1.860621552996745E+003	-1.5249123E-001	-1.9599679E-001	0	4.3764623E-005
1.860626952996608E+003	-1.5146026E-001	-1.9599424E-001	0	1.0103374E-004
1.860632752996462E+003	-1.5044838E-001	-1.9599615E-001	0	4.3764623E-005
1.860637352996346E+003	-1.4930287E-001	-1.9600061E-001	0	-5.1683910E-005
1.860641952996230E+003	-1.4827192E-001	-1.9599679E-001	0	-1.0895303E-004
1.860646152996123E+003	-1.4714549E-001	-1.9599298E-001	0	4.3764623E-005
1.860650552996012E+003	-1.4609544E-001	-1.9599362E-001	0	4.3764623E-005
1.860653952995926E+003	-1.4506447E-001	-1.9599870E-001	0	-8.9863323E-005
1.860657752995830E+003	-1.4405261E-001	-1.9599934E-001	0	5.5852106E-006
1.860661152995744E+003	-1.4298345E-001	-1.9599743E-001	0	-2.0440157E-004
1.860664952995648E+003	-1.4197159E-001	-1.9599298E-001	0	-1.3504496E-005
1.860668352995563E+003	-1.4090244E-001	-1.9599552E-001	0	4.3764623E-005
1.860671952995472E+003	-1.3977602E-001	-1.9599362E-001	0	-7.0773618E-005
1.860675752995376E+003	-1.3872597E-001	-1.9599679E-001	0	-3.2594202E-005
1.860678952995295E+003	-1.3761863E-001	-1.9599679E-001	0	-3.2594202E-005
1.860682952995194E+003	-1.3649221E-001	-1.9599552E-001	0	-7.0773618E-005
1.860686952995093E+003	-1.3534670E-001	-1.9599934E-001	0	8.1944032E-005
1.860690352995007E+003	-1.3431574E-001	-1.9599362E-001	0	-3.2594202E-005
1.860693552994926E+003	-1.3330387E-001	-1.9599424E-001	0	6.2854328E-005
1.860697152994835E+003	-1.3221563E-001	-1.9599998E-001	0	8.1944032E-005
1.860700752994744E+003	-1.3118467E-001	-1.9599807E-001	0	-1.3504496E-005
1.860703952994663E+003	-1.3007733E-001	-1.9600061E-001	0	-5.1683910E-005
1.860707952994562E+003	-1.2906547E-001	-1.9599934E-001	0	-7.0773618E-005
1.860711552994471E+003	-1.2801541E-001	-1.9599743E-001	0	-1.2804274E-004
1.860715152994380E+003	-1.2698445E-001	-1.9599488E-001	0	5.5852106E-006
1.860718952994284E+003	-1.2595348E-001	-1.9599870E-001	0	-3.2594202E-005
1.860722352994198E+003	-1.2490343E-001	-1.9599615E-001	0	2.4674917E-005
1.860726552994092E+003	-1.2377702E-001	-1.9599488E-001	0	5.5852106E-006
1.860730752993986E+003	-1.2276515E-001	-1.9598916E-001	0	-7.0773618E-005
1.860734552993890E+003	-1.2161963E-001	-1.9599424E-001	0	1.0103374E-004
1.860738952993779E+003	-1.2060776E-001	-1.9599488E-001	0	-5.1683910E-005
1.860742752993683E+003	-1.1959589E-001	-1.9599362E-001	0	8.1944032E-005
1.860747352993567E+003	-1.1858401E-001	-1.9599362E-001	0	-1.3504496E-005
1.860750952993476E+003	-1.1749578E-001	-1.9599488E-001	0	4.3764623E-005
1.860756352993340E+003	-1.1642663E-001	-1.9599552E-001	0	-1.3504496E-005
1.860760552993233E+003	-1.1539567E-001	-1.9599679E-001	0	-8.9863323E-005
1.860765352993112E+003	-1.1426925E-001	-1.9599107E-001	0	-1.2804274E-004
1.860770752992976E+003	-1.1320011E-001	-1.9599743E-001	0	-1.0895303E-004
1.860775952992844E+003	-1.1215005E-001	-1.9599870E-001	0	5.5852106E-006
1.860780752992723E+003	-1.1111908E-001	-1.9600698E-001	0	-7.0773618E-005
1.860786552992577E+003	-1.1006903E-001	-1.9599234E-001	0	2.4674917E-005
1.860792152992435E+003	-1.0903807E-001	-1.9599488E-001	0	-8.9863323E-005
1.860797352992304E+003	-1.0796893E-001	-1.9599488E-001	0	6.2854328E-005
1.860804352992127E+003	-1.0688069E-001	-1.9599552E-001	0	8.1944032E-005
1.860810752991965E+003	-1.0575426E-001	-1.9599870E-001	0	-5.1683910E-005
1.860817952991783E+003	-1.0470421E-001	-1.9599743E-001	0	8.1944032E-005
1.860824552991617E+003	-1.0369234E-001	-1.9599679E-001	0	8.1944032E-005
1.860831152991450E+003	-1.0266138E-001	-1.9599362E-001	0	2.4674917E-005
1.860838352991268E+003	-1.0163041E-001	-1.9599362E-001	0	8.1944032E-005
1.860845952991076E+003	-1.0061854E-001	-1.9599234E-001	0	8.1944032E-005
1.860854952990849E+003	-9.9511214E-002	-1.9599807E-001	0	-1.3504496E-005
1.860863752990626E+003	-9.8442070E-002	-1.9599552E-001	0	1.0103374E-004
1.860872752990399E+003	-9.7430199E-002	-1.9599679E-001	0	-1.0895303E-004
1.860883352990131E+003	-9.6227407E-002	-1.9599807E-001	0	1.3921315E-004
1.860895552989823E+003	-9.5215537E-002	-1.9599934E-001	0	-3.2594202E-005
1.860907152989530E+003	-9.4146393E-002	-1.9599743E-001	0	-5.1683910E-005
1.860919352989222E+003	-9.3115427E-002	-1.9599679E-001	0	4.3764623E-005
1.860931752988909E+003	-9.2046283E-002	-1.9599743E-001	0	-8.9863323E-005
1.860946752988530E+003	-9.0996228E-002	-1.9599870E-001	0	1.0103374E-004
1.860963352988110E+003	-8.9984357E-002	-1.9599615E-001	0	-8.9863323E-005
1.860980152987686E+003	-8.8953398E-002	-1.9599424E-001	0	4.3764623E-005
1.860999552987196E+003	-8.7750606E-002	-1.9599424E-001	0	6.2854328E-005
1.861023352986595E+003	-8.6738735E-002	-1.9599615E-001	0	4.3764623E-005
1.861046952985998E+003	-8.5726865E-002	-1.9599488E-001	0	-1.3504496E-005
1.861075152985286E+003	-8.4676810E-002	-1.9599488E-001	0	-1.2804274E-004
1.861107952984457E+003	-8.3664939E-002	-1.9599424E-001	0	1.0103374E-004
1.861141152983619E+003	-8.2653068E-002	-1.9600125E-001	0	8.1944032E-005
1.861186552982472E+003	-8.1622109E-002	-1.9599488E-001	0	-8.9863323E-005
1.861237952981173E+003	-8.0610238E-002	-1.9599934E-001	0	8.1944032E-005
1.861300352979597E+003	-7.9598367E-002	-1.9599298E-001	0	2.4674917E-005
1.861380752977566E+003	-7.8529216E-002	-1.9599234E-001	0	-8.9863323E-005
1.861485752974913E+003	-7.7517346E-002	-1.9599552E-001	0	6.2854328E-005
1.861641952970967E+003	-7.6505482E-002	-1.9599362E-001	0	-1.3504496E-005
1.861835152966087E+003	-7.5493611E-002	-1.9599362E-001	0	-5.1683910E-005
1.862188352957164E+003	-7.4462645E-002	-1.9599552E-001	0	-1.3504496E-005
1.863042552935585E+003	-7.3393501E-002	-1.9599998E-001	0	-8.9863323E-005
1.866931752837336E+003	-7.4443556E-002	-1.9599615E-001	0	-1.3504496E-005
1.869633552769083E+003	-7.5474516E-002	-1.9599552E-001	0	-1.0895303E-004
1.872189152704523E+003	-7.6581843E-002	-1.9599870E-001	0	4.3764623E-005
1.874919952635537E+003	-7.7593714E-002	-1.9599743E-001	0	1.5830285E-004
1.877735952564399E+003	-7.8605585E-002	-1.9599870E-001	0	1.5830285E-004
1.880719152489037E+003	-7.9617456E-002	-1.9599615E-001	0	4.3764623E-005
1.883894952408809E+003	-8.0629326E-002	-1.9600125E-001	0	-8.9863323E-005
1.887519152317254E+003	-8.1660293E-002	-1.9599870E-001	0	5.5852106E-006
1.891534152215827E+003	-8.2672164E-002	-1.9599807E-001	0	-1.2804274E-004
1.895748352109367E+003	-8.3703123E-002	-1.9599870E-001	0	-5.1683910E-005
1.896205552097817E+003	-8.3512202E-002	-1.9599488E-001	0	2.4674917E-005