time/s	Ewe/V	I/mA	error	Ece/V	
6.005299848293362E+001	2.8055494E+000	-2.5021279E-002	0	-7.1714557E-004
6.017319847989711E+001	9.2435181E-003	-6.0581627E+000	0	1.1416267E-005
6.017359847988700E+001	9.1671571E-003	-6.0008655E+000	0	-1.6037263E-004
6.017419847987185E+001	9.3007879E-003	-5.9346552E+000	0	-8.4022009E-005
6.017479847985669E+001	9.3771489E-003	-5.8760843E+000	0	-6.4934356E-005
6.017539847984153E+001	9.3771489E-003	-5.8028712E+000	0	-8.4022009E-005
6.017599847982638E+001	9.3389684E-003	-5.7341142E+000	0	1.1416267E-005
6.017659847981122E+001	9.3771489E-003	-5.6729970E+000	0	-6.4934356E-005
6.017719847979606E+001	9.2435181E-003	-5.6144261E+000	0	3.0503921E-005
6.017779847978090E+001	9.2816977E-003	-5.5431228E+000	0	1.1416267E-005
6.017859847976069E+001	9.3198782E-003	-5.4775496E+000	0	-6.4934356E-005
6.017919847974554E+001	9.2816977E-003	-5.4196153E+000	0	-6.4934356E-005
6.017979847973038E+001	9.3198782E-003	-5.3629546E+000	0	-6.4934356E-005
6.018039847971522E+001	9.3389684E-003	-5.3075676E+000	0	-4.5846697E-005
6.018099847970007E+001	9.3007879E-003	-5.2534528E+000	0	1.1416267E-005
6.018179847967986E+001	9.1862474E-003	-5.1859694E+000	0	-2.6759042E-005
6.018239847966470E+001	9.3962392E-003	-5.1356750E+000	0	6.8679226E-005
6.018299847964954E+001	9.3580587E-003	-5.0828342E+000	0	3.0503921E-005
6.018379847962933E+001	9.2435181E-003	-5.0236273E+000	0	-7.6713877E-006
6.018459847960912E+001	9.2244279E-003	-4.9586897E+000	0	6.8679226E-005
6.018539847958891E+001	9.3007879E-003	-4.9007559E+000	0	-1.0310966E-004
6.018619847956870E+001	9.2244279E-003	-4.8453679E+000	0	-7.6713877E-006
6.018699847954849E+001	9.2816977E-003	-4.7753382E+000	0	-1.2219732E-004
6.018799847952323E+001	9.3771489E-003	-4.7161312E+000	0	3.0503921E-005
6.018879847950302E+001	9.2626074E-003	-4.6645632E+000	0	-4.5846697E-005
6.018959847948281E+001	9.2816977E-003	-4.6091762E+000	0	-7.6713877E-006
6.019039847946260E+001	9.3007879E-003	-4.5531516E+000	0	-8.4022009E-005
6.019139847943734E+001	9.3580587E-003	-4.4971280E+000	0	1.1416267E-005
6.019239847941208E+001	9.3007879E-003	-4.4328270E+000	0	-4.5846697E-005
6.019339847938681E+001	9.2053376E-003	-4.3780766E+000	0	3.0503921E-005
6.019439847936155E+001	9.3007879E-003	-4.3207793E+000	0	6.8679226E-005
6.019539847933629E+001	9.3962392E-003	-4.2673020E+000	0	-6.4934356E-005
6.019639847931103E+001	9.4153285E-003	-4.2119141E+000	0	-6.4934356E-005
6.019759847928071E+001	9.3580587E-003	-4.1527071E+000	0	-7.6713877E-006
6.019859847925545E+001	9.3198782E-003	-4.0973196E+000	0	-2.6759042E-005
6.019959847923019E+001	9.3198782E-003	-4.0444784E+000	0	-1.6037263E-004
6.020099847919482E+001	9.2244279E-003	-3.9846346E+000	0	-1.2219732E-004
6.020199847916956E+001	9.3007879E-003	-3.9298840E+000	0	-8.4022009E-005
6.020319847913925E+001	9.2435181E-003	-3.8789525E+000	0	-6.4934356E-005
6.020459847910388E+001	9.3389684E-003	-3.8165624E+000	0	-8.4022009E-005
6.020579847907356E+001	9.3007879E-003	-3.7637215E+000	0	-1.2219732E-004
6.020719847903820E+001	9.3580587E-003	-3.7064245E+000	0	-1.2219732E-004
6.020899847899273E+001	9.2626074E-003	-3.6453073E+000	0	-8.4022009E-005
6.021039847895736E+001	9.2816977E-003	-3.5873730E+000	0	3.0503921E-005
6.021199847891694E+001	9.3962392E-003	-3.5256188E+000	0	-4.5846697E-005
6.021379847887147E+001	9.3007879E-003	-3.4619553E+000	0	3.0503921E-005
6.021559847882600E+001	9.3580587E-003	-3.4040215E+000	0	3.0503921E-005
6.021739847878052E+001	9.3389684E-003	-3.3454509E+000	0	-2.6759042E-005
6.021919847873505E+001	9.1862474E-003	-3.2900634E+000	0	-1.2219732E-004
6.022099847868958E+001	9.4153285E-003	-3.2359490E+000	0	1.1416267E-005
6.022259847864916E+001	9.2626074E-003	-3.1856546E+000	0	-1.4128498E-004
6.022439847860369E+001	9.2816977E-003	-3.1347239E+000	0	1.1416267E-005
6.022619847855822E+001	9.3007879E-003	-3.0825195E+000	0	-1.4128498E-004
6.022819847850769E+001	9.2626074E-003	-3.0194924E+000	0	-7.6713877E-006
6.023059847844706E+001	9.2626074E-003	-2.9685616E+000	0	-7.6713877E-006
6.023259847839654E+001	9.3389684E-003	-2.9125373E+000	0	-1.0310966E-004
6.023499847833591E+001	9.3389684E-003	-2.8603332E+000	0	-7.6713877E-006
6.023699847828539E+001	9.2626074E-003	-2.8094022E+000	0	-6.4934356E-005
6.023939847822476E+001	9.3389684E-003	-2.7565613E+000	0	-1.6037263E-004
6.024179847816413E+001	9.3198782E-003	-2.7062669E+000	0	-7.6713877E-006
6.024419847810350E+001	9.2435181E-003	-2.6559725E+000	0	1.1416267E-005
6.024679847803782E+001	9.2816977E-003	-2.6024952E+000	0	-2.6759042E-005
6.024939847797214E+001	9.2435181E-003	-2.5515640E+000	0	-6.4934356E-005
6.025199847790645E+001	9.3198782E-003	-2.5006330E+000	0	-6.4934356E-005
6.025519847782562E+001	9.2244279E-003	-2.4471555E+000	0	-7.6713877E-006
6.025799847775488E+001	9.3389684E-003	-2.3962245E+000	0	-4.5846697E-005
6.026099847767910E+001	9.4153285E-003	-2.3440201E+000	0	-1.2219732E-004
6.026479847758310E+001	9.2053376E-003	-2.2879961E+000	0	-4.5846697E-005
6.026819847749721E+001	9.3389684E-003	-2.2351551E+000	0	-1.0310966E-004
6.027199847740121E+001	9.2435181E-003	-2.1835878E+000	0	-1.0310966E-004
6.027299847737595E+001	9.2816977E-003	-2.2428348E+000	0	1.1416267E-005
6.030319847661303E+001	9.3007879E-003	-1.8431790E+000	0	-1.4128498E-004
6.030839847648167E+001	9.3007879E-003	-1.7928350E+000	0	-6.4934356E-005
6.031399847634020E+001	9.3389684E-003	-1.7419181E+000	0	3.0503921E-005
6.031999847618863E+001	9.3389684E-003	-1.6900468E+000	0	-2.6759042E-005
6.032619847603200E+001	9.3007879E-003	-1.6398938E+000	0	3.0503921E-005
6.033279847586527E+001	9.3389684E-003	-1.5891678E+000	0	-1.4128498E-004
6.033999847568339E+001	9.2435181E-003	-1.5376784E+000	0	-6.4934356E-005
6.034779847548634E+001	9.2626074E-003	-1.4866980E+000	0	-4.5846697E-005
6.035559847528930E+001	9.2435181E-003	-1.4366086E+000	0	3.0503921E-005
6.036419847507204E+001	9.2816977E-003	-1.3862647E+000	0	3.0503921E-005
6.037379847482953E+001	9.3771489E-003	-1.3355389E+000	0	-7.6713877E-006
6.038379847457691E+001	9.2244279E-003	-1.2851949E+000	0	1.1416267E-005
6.039459847430408E+001	9.2816977E-003	-1.2345964E+000	0	-6.4934356E-005
6.040659847400093E+001	9.2626074E-003	-1.1841888E+000	0	3.0503921E-005
6.041939847367757E+001	9.2435181E-003	-1.1340358E+000	0	8.7766879E-005
6.043379847331380E+001	9.3962392E-003	-1.0834372E+000	0	4.9591574E-005
6.044919847292476E+001	9.3198782E-003	-1.0329022E+000	0	-7.6713877E-006
6.046639847249025E+001	9.3007879E-003	-9.8287660E-001	0	4.9591574E-005
6.048579847200017E+001	9.3198782E-003	-9.3253261E-001	0	-4.5846697E-005
6.050719847145956E+001	9.3580587E-003	-8.8212502E-001	0	-7.6713877E-006
6.053139847084822E+001	9.2244279E-003	-8.3159024E-001	0	-7.6713877E-006
6.055919847014593E+001	9.2244279E-003	-7.8105527E-001	0	-8.4022009E-005
6.059119846933754E+001	9.3389684E-003	-7.3013860E-001	0	-6.4934356E-005
6.062719846842811E+001	9.2626074E-003	-6.8011284E-001	0	6.8679226E-005
6.066959846735699E+001	9.3007879E-003	-6.2957793E-001	0	-4.5846697E-005
6.071979846608883E+001	9.3198782E-003	-5.7929766E-001	0	-2.6759042E-005
6.077999846456805E+001	9.3580587E-003	-5.2869910E-001	0	-1.7946029E-004
6.085279846272897E+001	9.3580587E-003	-4.7778231E-001	0	1.1416267E-005
6.094339846044022E+001	9.3389684E-003	-4.2775661E-001	0	-4.5846697E-005
6.106679845732288E+001	9.3198782E-003	-3.7767941E-001	0	1.2594218E-004
6.121939845346787E+001	9.3389684E-003	-3.2753798E-001	0	-7.6713877E-006
6.142739844821335E+001	9.2626074E-003	-2.7753660E-001	0	-2.6759042E-005
6.172579844067513E+001	9.2626074E-003	-2.2749701E-001	0	1.1416267E-005
6.219139842891309E+001	9.2626074E-003	-1.7739378E-001	0	-1.2219732E-004
6.301279840816278E+001	9.3771489E-003	-1.2736055E-001	0	-2.6759042E-005
6.484099836197856E+001	9.2053376E-003	-7.7352792E-002	0	-2.6759042E-005
7.328319814871065E+001	9.2053376E-003	-2.7323639E-002	0	-2.6759042E-005
8.328319789608940E+001	9.3198782E-003	-1.5289139E-002	0	-6.4934356E-005
9.328319764346816E+001	9.2816977E-003	-1.0562641E-002	0	-7.6713877E-006
1.032831973908469E+002	9.2816977E-003	-7.9015987E-003	0	-7.6713877E-006
1.132831971382257E+002	9.2053376E-003	-6.4463620E-003	0	4.9591574E-005
1.232831968856044E+002	9.2816977E-003	-5.2768271E-003	0	-1.0310966E-004
1.332831966329832E+002	9.3580587E-003	-4.4750785E-003	0	4.9591574E-005
1.432831963803619E+002	9.2053376E-003	-3.9708028E-003	0	-6.4934356E-005
1.532831961277407E+002	9.1862474E-003	-3.5478272E-003	0	-2.6759042E-005
1.632831958751194E+002	9.2244279E-003	-3.2014907E-003	0	1.1416267E-005
1.732831956224982E+002	9.3007879E-003	-2.9708752E-003	0	-8.4022009E-005
1.832831953698769E+002	9.2816977E-003	-2.6846270E-003	0	1.0685454E-004
1.932831951172557E+002	9.2626074E-003	-2.4796643E-003	0	6.8679226E-005
2.032831948646344E+002	9.2816977E-003	-2.3563679E-003	0	1.1416267E-005
2.132831946120132E+002	9.3389684E-003	-2.1936069E-003	0	-2.6759042E-005
2.232831943593919E+002	9.2626074E-003	-2.0349196E-003	0	1.1416267E-005
2.332831941067707E+002	9.2244279E-003	-1.8733679E-003	0	-4.5846697E-005
2.432831938541494E+002	9.3198782E-003	-1.8216814E-003	0	4.9591574E-005
2.532831936015282E+002	9.3771489E-003	-1.6874369E-003	0	-1.0310966E-004
2.632831933489069E+002	9.4153285E-003	-1.6446620E-003	0	-7.6713877E-006
2.732831930962857E+002	9.3007879E-003	-1.5678962E-003	0	-6.4934356E-005
2.832831928436644E+002	9.1671571E-003	-1.4918309E-003	0	-7.6713877E-006
2.932831925910432E+002	9.2816977E-003	-1.4523660E-003	0	-1.4128498E-004
3.032831923384219E+002	9.3007879E-003	-1.3475928E-003	0	-2.6759042E-005
3.132831920858007E+002	9.2435181E-003	-1.3230228E-003	0	-2.6759042E-005
3.232831918331794E+002	9.2053376E-003	-1.2653531E-003	0	8.7766879E-005
3.332831915805582E+002	9.3007879E-003	-1.2412922E-003	0	3.0503921E-005
3.432831913279369E+002	9.2626074E-003	-1.2405283E-003	0	-2.6759042E-005
3.532831910753157E+002	9.2626074E-003	-1.1728650E-003	0	-2.6759042E-005
3.632831908226945E+002	9.2816977E-003	-1.1355006E-003	0	-7.6713877E-006
3.732831905700732E+002	9.3389684E-003	-1.0811408E-003	0	3.0503921E-005
3.832831903174520E+002	9.2626074E-003	-1.0787856E-003	0	-1.4128498E-004
3.932831900648307E+002	9.2244279E-003	-1.0332736E-003	0	1.1416267E-005
4.032831898122095E+002	9.2053376E-003	-1.0283086E-003	0	8.7766879E-005
4.132831895595882E+002	9.3198782E-003	-9.7184838E-004	0	-1.6037263E-004
4.232831893069670E+002	9.2816977E-003	-9.7133906E-004	0	6.8679226E-005
4.332831890543457E+002	9.2244279E-003	-9.1513345E-004	0	6.8679226E-005
4.432831888017245E+002	9.3389684E-003	-8.8133360E-004	0	-7.6713877E-006
4.532831885491032E+002	9.2435181E-003	-8.7433169E-004	0	-6.4934356E-005
4.632831882964820E+002	9.2816977E-003	-8.4104115E-004	0	-6.4934356E-005
4.732831880438607E+002	9.2053376E-003	-8.2041754E-004	0	-6.4934356E-005
4.832831877912395E+002	9.3198782E-003	-7.9565641E-004	0	4.9591574E-005
4.932831875386182E+002	9.1671571E-003	-8.1818958E-004	0	-1.6037263E-004
5.032831872859970E+002	9.3389684E-003	-8.1086956E-004	0	-4.5846697E-005
5.132831870333757E+002	9.2435181E-003	-8.1500702E-004	0	-1.9854793E-004
5.232831867807545E+002	9.2435181E-003	-7.5288152E-004	0	-2.6759042E-005
5.332831865281332E+002	9.2816977E-003	-7.3989632E-004	0	-1.0310966E-004
5.432831862755120E+002	9.3580587E-003	-7.3499500E-004	0	4.9591574E-005
5.532831860228907E+002	9.3580587E-003	-7.0876989E-004	0	-1.0310966E-004
5.632831857702695E+002	9.2244279E-003	-7.3060294E-004	0	-7.6713877E-006
5.732831855176482E+002	9.2244279E-003	-6.8063522E-004	0	-4.5846697E-005
5.832831852650270E+002	9.3007879E-003	-6.6363980E-004	0	-7.6713877E-006
5.932831850124057E+002	9.2816977E-003	-6.4772653E-004	0	-2.6759042E-005
6.032831847597845E+002	9.2816977E-003	-6.7611580E-004	0	-8.4022009E-005
6.132831845071632E+002	9.2626074E-003	-6.8044430E-004	0	3.0503921E-005
6.232831842545420E+002	9.3389684E-003	-6.0081424E-004	0	6.8679226E-005
6.332831840019207E+002	9.3389684E-003	-6.1965553E-004	0	1.0685454E-004
6.432831837492995E+002	9.2244279E-003	-6.1717309E-004	0	-8.4022009E-005
6.532831834966782E+002	9.3389684E-003	-6.4855401E-004	0	1.1416267E-005
6.632831832440570E+002	9.2626074E-003	-5.7299773E-004	0	-7.6713877E-006
6.732831829914358E+002	9.2816977E-003	-5.6720531E-004	0	1.1416267E-005
6.832831827388145E+002	9.1289766E-003	-6.0533360E-004	0	-8.4022009E-005
6.932831824861933E+002	9.3198782E-003	-5.4136215E-004	0	-4.5846697E-005
7.032831822335720E+002	9.3198782E-003	-5.5173761E-004	0	-1.4128498E-004
7.132831819809508E+002	9.2626074E-003	-5.4785481E-004	0	-4.5846697E-005
7.232831817283295E+002	9.3580587E-003	-5.2156602E-004	0	1.1416267E-005
7.332831814757083E+002	9.3771489E-003	-5.4632715E-004	0	1.1416267E-005
7.432831812230870E+002	9.3198782E-003	-5.1233626E-004	0	-2.6759042E-005
7.532831809704658E+002	9.3198782E-003	-5.3646090E-004	0	-7.6713877E-006
7.632831807178445E+002	9.3389684E-003	-5.0628925E-004	0	4.9591574E-005
7.732831804652233E+002	9.4344188E-003	-5.3359644E-004	0	-4.5846697E-005
7.832831802126020E+002	9.3198782E-003	-4.8725697E-004	0	-2.6759042E-005
7.932831799599808E+002	9.3580587E-003	-5.1169976E-004	0	-4.5846697E-005
8.032831797073595E+002	9.3389684E-003	-5.0189719E-004	0	-4.5846697E-005
8.132831794547383E+002	9.3389684E-003	-4.3792580E-004	0	-1.2219732E-004
8.232831792021170E+002	9.3580587E-003	-4.9298571E-004	0	-4.5846697E-005
8.332831789494958E+002	9.3580587E-003	-4.9304939E-004	0	-8.4022009E-005
8.432831786968745E+002	9.2244279E-003	-4.8165550E-004	0	6.8679226E-005
8.532831784442533E+002	9.3198782E-003	-4.5944055E-004	0	-8.4022009E-005
8.632831781916320E+002	9.3389684E-003	-4.6949770E-004	0	-1.0310966E-004
8.732831779390108E+002	9.3198782E-003	-4.3722556E-004	0	-7.6713877E-006
8.832831776863895E+002	9.2435181E-003	-4.4187222E-004	0	1.2594218E-004
8.932831774337683E+002	9.2626074E-003	-4.8070072E-004	0	-4.5846697E-005
9.032831771811470E+002	9.2244279E-003	-4.0151615E-004	0	8.7766879E-005
9.132831769285258E+002	9.2626074E-003	-4.4180863E-004	0	-1.4128498E-004
9.232831766759045E+002	9.3389684E-003	-4.3238795E-004	0	4.9591574E-005
9.332831764232833E+002	9.2816977E-003	-4.5294789E-004	0	8.7766879E-005
9.432831761706620E+002	9.3007879E-003	-3.9476895E-004	0	1.1416267E-005
9.532831759180408E+002	9.2435181E-003	-4.3614348E-004	0	-6.4934356E-005
9.632831756654195E+002	9.3198782E-003	-3.8375694E-004	0	1.6411749E-004
9.732831754127983E+002	9.2816977E-003	-3.9922466E-004	0	-2.6759042E-005
9.832831751601771E+002	9.2626074E-003	-3.7522742E-004	0	-8.4022009E-005
9.932831749075558E+002	9.2053376E-003	-4.2213980E-004	0	8.7766879E-005
1.003283174654935E+003	9.2816977E-003	-3.6236949E-004	0	-1.2219732E-004
1.013283174402313E+003	9.2626074E-003	-3.8127450E-004	0	-1.0310966E-004
1.023283174149692E+003	9.3007879E-003	-3.6567944E-004	0	6.8679226E-005
1.033283173897071E+003	9.2626074E-003	-3.7993776E-004	0	-2.6759042E-005
1.043283173644450E+003	9.2244279E-003	-4.0807243E-004	0	-4.5846697E-005
1.053283173391828E+003	9.2626074E-003	-3.9954294E-004	0	-1.4128498E-004
1.063283173139207E+003	9.4344188E-003	-3.6192391E-004	0	4.9591574E-005
1.073283172886586E+003	9.3771489E-003	-3.7166287E-004	0	-6.4934356E-005
1.083283172633965E+003	9.2626074E-003	-4.0317117E-004	0	-7.6713877E-006
1.093283172381343E+003	9.3389684E-003	-3.0890087E-004	0	-6.4934356E-005
1.103283172128722E+003	9.2626074E-003	-3.9725142E-004	0	-6.4934356E-005
1.113283171876101E+003	9.3198782E-003	-3.4671082E-004	0	6.8679226E-005
1.123283171623480E+003	9.3007879E-003	-3.4301897E-004	0	-4.5846697E-005
1.133283171370858E+003	9.3007879E-003	-3.6326065E-004	0	-7.6713877E-006
1.143283171118237E+003	9.1480669E-003	-3.5167579E-004	0	-2.6759042E-005
1.153283170865616E+003	9.3007879E-003	-3.6816191E-004	0	-4.5846697E-005
1.163283170612995E+003	9.2816977E-003	-3.1641193E-004	0	-2.1763559E-004
1.173283170360373E+003	9.3389684E-003	-3.6408813E-004	0	3.0503921E-005
1.183283170107752E+003	9.3198782E-003	-3.2856967E-004	0	4.9591574E-005
1.193283169855131E+003	9.2053376E-003	-3.3347099E-004	0	8.7766879E-005
1.203283169602510E+003	9.1862474E-003	-3.3347099E-004	0	-2.6759042E-005
1.213283169349888E+003	9.3580587E-003	-3.2252262E-004	0	8.7766879E-005
1.223283169097267E+003	9.3198782E-003	-3.2506874E-004	0	-6.4934356E-005
1.233283168844646E+003	9.2816977E-003	-3.4753833E-004	0	1.1416267E-005
1.243283168592025E+003	9.2626074E-003	-3.2430491E-004	0	1.1416267E-005
1.253283168339403E+003	9.2816977E-003	-3.1927630E-004	0	4.9591574E-005
1.263283168086782E+003	9.2244279E-003	-3.4066377E-004	0	-2.6759042E-005
1.273283167834161E+003	9.2626074E-003	-3.4989350E-004	0	-1.0310966E-004
1.283283167581540E+003	9.3198782E-003	-2.9610659E-004	0	3.0503921E-005
1.293283167328918E+003	9.2435181E-003	-3.0291747E-004	0	1.1416267E-005
1.303283167076297E+003	9.3389684E-003	-3.0597282E-004	0	-8.4022009E-005
1.313283166823676E+003	9.2244279E-003	-2.7815640E-004	0	4.9591574E-005
1.323283166571055E+003	9.2816977E-003	-3.0107153E-004	0	-4.5846697E-005
1.333283166318433E+003	9.2626074E-003	-3.2901522E-004	0	-4.5846697E-005
1.343283166065812E+003	9.2435181E-003	-3.0018037E-004	0	-1.2219732E-004
1.353283165813191E+003	9.3198782E-003	-2.8312136E-004	0	3.0503921E-005
1.363283165560570E+003	9.3007879E-003	-3.3417114E-004	0	4.9591574E-005
1.373283165307948E+003	9.3389684E-003	-2.9865271E-004	0	-8.4022009E-005
1.383283165055327E+003	9.1671571E-003	-2.8273943E-004	0	8.7766879E-005
1.393283164802706E+003	9.2244279E-003	-2.8948666E-004	0	1.0685454E-004
1.403283164550085E+003	9.2626074E-003	-2.7993869E-004	0	-1.0310966E-004
1.413283164297463E+003	9.3198782E-003	-3.0336305E-004	0	-1.0310966E-004
1.423283164044842E+003	9.3389684E-003	-3.1698481E-004	0	-1.2219732E-004
1.433283163792221E+003	9.2626074E-003	-2.9343314E-004	0	-8.4022009E-005
1.443283163539600E+003	9.3389684E-003	-2.6778094E-004	0	-2.6759042E-005
1.453283163286978E+003	9.3580587E-003	-2.3703647E-004	0	-6.4934356E-005
1.463283163034357E+003	9.2053376E-003	-2.5855121E-004	0	-2.6759042E-005
1.473283162781736E+003	9.3198782E-003	-2.7338241E-004	0	-2.6759042E-005
1.483283162529115E+003	9.2435181E-003	-2.5855121E-004	0	-1.2219732E-004
1.493283162276493E+003	9.2626074E-003	-2.5167668E-004	0	-8.4022009E-005
1.503283162023872E+003	9.2244279E-003	-2.7452817E-004	0	-1.4128498E-004
1.513283161771251E+003	9.2626074E-003	-2.3671817E-004	0	8.7766879E-005
1.523283161518630E+003	9.2626074E-003	-2.5014899E-004	0	-6.4934356E-005
1.533283161266008E+003	9.2053376E-003	-2.4588424E-004	0	-6.4934356E-005
1.543283161013387E+003	9.3007879E-003	-2.7433722E-004	0	1.1416267E-005
1.553283160760766E+003	9.2626074E-003	-2.5867854E-004	0	-6.4934356E-005
1.563283160508145E+003	9.3198782E-003	-2.5161303E-004	0	3.0503921E-005
1.573283160255523E+003	9.2626074E-003	-2.4703000E-004	0	-2.6759042E-005
1.583283160002902E+003	9.3389684E-003	-2.3614531E-004	0	-1.2219732E-004
1.593283159750281E+003	9.3580587E-003	-2.8254846E-004	0	-4.5846697E-005
1.603283159497660E+003	9.2053376E-003	-3.4371912E-004	0	-2.6759042E-005
1.613283159245038E+003	9.1098864E-003	-2.6822652E-004	0	4.9591574E-005
1.623283158992417E+003	9.2816977E-003	-2.7866563E-004	0	3.0503921E-005
1.633283158739796E+003	9.2626074E-003	-2.7739257E-004	0	-7.6713877E-006
1.643283158487175E+003	9.1480669E-003	-2.6701708E-004	0	-7.6713877E-006
1.653283158234553E+003	9.2816977E-003	-2.6606230E-004	0	-1.0310966E-004
1.663283157981932E+003	9.2816977E-003	-2.8541285E-004	0	1.0685454E-004
1.673283157729311E+003	9.2626074E-003	-2.6396173E-004	0	1.1416267E-005
1.683283157476690E+003	9.2626074E-003	-2.2927076E-004	0	-1.4128498E-004
1.693283157224068E+003	9.3007879E-003	-2.3277168E-004	0	-2.6759042E-005
1.703283156971447E+003	9.2816977E-003	-2.6587135E-004	0	-7.6713877E-006
1.713283156718826E+003	9.2626074E-003	-2.4403830E-004	0	-1.2219732E-004
1.723283156466205E+003	9.3007879E-003	-2.6867207E-004	0	-7.6713877E-006
1.733283156213583E+003	9.2053376E-003	-2.7522835E-004	0	-7.6713877E-006
1.743283155960962E+003	9.2816977E-003	-3.0100788E-004	0	3.0503921E-005
1.753283155708341E+003	9.3198782E-003	-2.6803557E-004	0	1.0685454E-004
1.763283155455720E+003	9.2244279E-003	-2.5886949E-004	0	-1.9854793E-004
1.773283155203098E+003	9.3771489E-003	-2.2850692E-004	0	-4.5846697E-005
1.783283154950477E+003	9.3198782E-003	-2.0266377E-004	0	-2.6759042E-005
1.793283154697856E+003	9.2053376E-003	-2.6529847E-004	0	-4.5846697E-005
1.803283154445235E+003	9.1289766E-003	-2.2290547E-004	0	-7.6713877E-006
1.813283154192613E+003	9.3580587E-003	-1.9865361E-004	0	-4.5846697E-005
1.823283153939992E+003	9.3007879E-003	-2.6580767E-004	0	-7.6713877E-006
1.833283153687371E+003	9.2244279E-003	-2.3340822E-004	0	-1.0310966E-004
1.843283153434750E+003	9.2626074E-003	-2.3754567E-004	0	-1.0310966E-004
1.853283153182128E+003	9.3580587E-003	-2.4352907E-004	0	-7.6713877E-006
1.860052753011114E+003	9.2626074E-003	-1.8585933E-004	0	-4.5846697E-005