time/s	Ewe/V	I/mA	error	Ece/V	
6.005299848293362E+001	2.9903512E+000	-2.5031064E-002	0	-5.8147113E-004
6.017319847989711E+001	9.4795581E-003	-2.3897228E+001	0	9.6267060E-005
6.017359847988700E+001	9.4032055E-003	-2.3838045E+001	0	-3.7334015E-005
6.017399847987690E+001	9.3650287E-003	-2.3781408E+001	0	5.8095327E-005
6.017439847986680E+001	9.4604697E-003	-2.3722860E+001	0	1.9923591E-005
6.017479847985669E+001	9.4032055E-003	-2.3659859E+001	0	5.8095327E-005
6.017539847984153E+001	9.4032055E-003	-2.3581585E+001	0	1.5352466E-004
6.017579847983143E+001	9.3077635E-003	-2.3522400E+001	0	-1.8248145E-005
6.017619847982132E+001	9.3650287E-003	-2.3472126E+001	0	8.3772284E-007
6.017659847981122E+001	9.4604697E-003	-2.3414215E+001	0	-1.8248145E-005
6.017699847980111E+001	9.4986465E-003	-2.3362032E+001	0	7.7181190E-005
6.017739847979101E+001	9.4413813E-003	-2.3310486E+001	0	8.3772284E-007
6.017779847978090E+001	9.3268519E-003	-2.3250666E+001	0	8.3772284E-007
6.017819847977080E+001	9.4222939E-003	-2.3199120E+001	0	-1.8248145E-005
6.017879847975564E+001	9.3841171E-003	-2.3121479E+001	0	-1.8248145E-005
6.017919847974554E+001	9.4032055E-003	-2.3067389E+001	0	5.8095327E-005
6.017979847973038E+001	9.4795581E-003	-2.2995476E+001	0	-7.5505755E-005
6.018039847971522E+001	9.4222939E-003	-2.2920383E+001	0	9.6267060E-005
6.018099847970007E+001	9.4413813E-003	-2.2841471E+001	0	-5.6419882E-005
6.018159847968491E+001	9.2695868E-003	-2.2771471E+001	0	3.9009457E-005
6.018219847966975E+001	9.4222939E-003	-2.2698284E+001	0	-3.7334015E-005
6.018279847965459E+001	9.3841171E-003	-2.2627012E+001	0	8.3772284E-007
6.018339847963944E+001	9.3459403E-003	-2.2557009E+001	0	5.8095327E-005
6.018399847962428E+001	9.3841171E-003	-2.2485735E+001	0	-1.8248145E-005
6.018459847960912E+001	9.3650287E-003	-2.2417641E+001	0	-5.6419882E-005
6.018519847959396E+001	9.2886752E-003	-2.2350185E+001	0	-1.8248145E-005
6.018579847957881E+001	9.3841171E-003	-2.2283365E+001	0	-1.3276337E-004
6.018639847956365E+001	9.3459403E-003	-2.2217180E+001	0	-1.8248145E-005
6.018699847954849E+001	9.4604697E-003	-2.2161816E+001	0	-3.7334015E-005
6.018759847953334E+001	9.3459403E-003	-2.2087997E+001	0	3.9009457E-005
6.018819847951818E+001	9.4032055E-003	-2.2023722E+001	0	-3.7334015E-005
6.018879847950302E+001	9.4032055E-003	-2.1961992E+001	0	-7.5505755E-005
6.018939847948786E+001	9.5177349E-003	-2.1905991E+001	0	3.9009457E-005
6.018999847947271E+001	9.4222939E-003	-2.1844896E+001	0	-3.7334015E-005
6.019059847945755E+001	9.3268519E-003	-2.1783806E+001	0	-3.7334015E-005
6.019119847944239E+001	9.3459403E-003	-2.1722076E+001	0	3.9009457E-005
6.019199847942218E+001	9.3459403E-003	-2.1644438E+001	0	8.3772284E-007
6.019259847940702E+001	9.3841171E-003	-2.1585892E+001	0	2.1078227E-004
6.019319847939187E+001	9.3650287E-003	-2.1529890E+001	0	-7.5505755E-005
6.019379847937671E+001	9.3459403E-003	-2.1469435E+001	0	-1.8248145E-005
6.019439847936155E+001	9.4032055E-003	-2.1415977E+001	0	-1.8248145E-005
6.019499847934640E+001	9.3459403E-003	-2.1363792E+001	0	1.7261053E-004
6.019579847932619E+001	9.4032055E-003	-2.1285519E+001	0	-3.7334015E-005
6.019639847931103E+001	9.4795581E-003	-2.1229517E+001	0	-5.6419882E-005
6.019699847929587E+001	9.3459403E-003	-2.1176697E+001	0	8.3772284E-007
6.019759847928071E+001	9.5177349E-003	-2.1126423E+001	0	-3.7334015E-005
6.019819847926556E+001	9.4032055E-003	-2.1074242E+001	0	-1.8248145E-005
6.019879847925040E+001	9.2886752E-003	-2.1016968E+001	0	8.3772284E-007
6.019959847923019E+001	9.3459403E-003	-2.0959055E+001	0	1.9923591E-005
6.020019847921503E+001	9.4222939E-003	-2.0894144E+001	0	3.9009457E-005
6.020099847919482E+001	9.3459403E-003	-2.0831779E+001	0	8.3772284E-007
6.020159847917967E+001	9.3841171E-003	-2.0775778E+001	0	8.3772284E-007
6.020239847915946E+001	9.5368233E-003	-2.0716593E+001	0	-5.6419882E-005
6.020319847913925E+001	9.4222939E-003	-2.0651684E+001	0	9.6267060E-005
6.020399847911904E+001	9.4032055E-003	-2.0588045E+001	0	5.8095327E-005
6.020479847909883E+001	9.4413813E-003	-2.0525679E+001	0	8.3772284E-007
6.020559847907862E+001	9.4222939E-003	-2.0467131E+001	0	3.9009457E-005
6.020619847906346E+001	9.2886752E-003	-2.0416222E+001	0	3.9009457E-005
6.020699847904325E+001	9.4222939E-003	-2.0364676E+001	0	3.9009457E-005
6.020759847902809E+001	9.3077635E-003	-2.0308035E+001	0	-1.8248145E-005
6.020839847900788E+001	9.4795581E-003	-2.0250126E+001	0	1.3443880E-004
6.020919847898767E+001	9.4795581E-003	-2.0185215E+001	0	-1.8248145E-005
6.021019847896241E+001	9.4032055E-003	-2.0115849E+001	0	-1.8248145E-005
6.021099847894220E+001	9.4032055E-003	-2.0065575E+001	0	9.6267060E-005
6.021159847892704E+001	9.3841171E-003	-2.0015301E+001	0	-7.5505755E-005
6.021239847890683E+001	9.3077635E-003	-1.9963755E+001	0	3.9009457E-005
6.021319847888662E+001	9.4604697E-003	-1.9903934E+001	0	-1.8248145E-005
6.021399847886642E+001	9.4222939E-003	-1.9843479E+001	0	-3.7334015E-005
6.021499847884115E+001	9.3268519E-003	-1.9776020E+001	0	1.3443880E-004
6.021599847881589E+001	9.4032055E-003	-1.9713655E+001	0	5.8095327E-005
6.021679847879568E+001	9.3268519E-003	-1.9661472E+001	0	-3.7334015E-005
6.021759847877547E+001	9.4222939E-003	-1.9606106E+001	0	-1.8248145E-005
6.021839847875526E+001	9.3268519E-003	-1.9555199E+001	0	9.6267060E-005
6.021919847873505E+001	9.4986465E-003	-1.9499832E+001	0	7.7181190E-005
6.022019847870979E+001	9.3650287E-003	-1.9437466E+001	0	-3.7334015E-005
6.022099847868958E+001	9.4413813E-003	-1.9382738E+001	0	-7.5505755E-005
6.022179847866937E+001	9.5177349E-003	-1.9331827E+001	0	8.3772284E-007
6.022259847864916E+001	9.4222939E-003	-1.9280281E+001	0	-3.7334015E-005
6.022379847861885E+001	9.3841171E-003	-1.9208370E+001	0	1.1535293E-004
6.022459847859864E+001	9.3841171E-003	-1.9156185E+001	0	5.8095327E-005
6.022559847857337E+001	9.2886752E-003	-1.9094456E+001	0	1.9923591E-005
6.022659847854811E+001	9.4222939E-003	-1.9034000E+001	0	1.1535293E-004
6.022759847852285E+001	9.3459403E-003	-1.8974180E+001	0	8.3772284E-007
6.022859847849759E+001	9.3841171E-003	-1.8916906E+001	0	8.3772284E-007
6.022939847847738E+001	9.4795581E-003	-1.8866631E+001	0	1.3443880E-004
6.023039847845212E+001	9.4604697E-003	-1.8806812E+001	0	8.3772284E-007
6.023159847842180E+001	9.5368233E-003	-1.8734264E+001	0	-1.1367749E-004
6.023259847839654E+001	9.3841171E-003	-1.8678900E+001	0	3.9009457E-005
6.023359847837128E+001	9.4604697E-003	-1.8616533E+001	0	1.9923591E-005
6.023479847834096E+001	9.3841171E-003	-1.8557350E+001	0	-7.5505755E-005
6.023579847831570E+001	9.4222939E-003	-1.8501984E+001	0	7.7181190E-005
6.023659847829549E+001	9.4604697E-003	-1.8451712E+001	0	8.3772284E-007
6.023779847826518E+001	9.4222939E-003	-1.8396345E+001	0	-3.7334015E-005
6.023879847823991E+001	9.4032055E-003	-1.8337164E+001	0	-5.6419882E-005
6.023979847821465E+001	9.4032055E-003	-1.8281160E+001	0	-3.7334015E-005
6.024079847818939E+001	9.3841171E-003	-1.8228342E+001	0	7.7181190E-005
6.024179847816413E+001	9.3841171E-003	-1.8176794E+001	0	3.9009457E-005
6.024279847813887E+001	9.3459403E-003	-1.8119520E+001	0	5.8095327E-005
6.024379847811360E+001	9.3841171E-003	-1.8067974E+001	0	-7.5505755E-005
6.024479847808834E+001	9.4032055E-003	-1.8015789E+001	0	-5.6419882E-005
6.024579847806308E+001	9.4986465E-003	-1.7961061E+001	0	1.9923591E-005
6.024699847803277E+001	9.3268519E-003	-1.7903149E+001	0	-3.7334015E-005
6.024819847800245E+001	9.3841171E-003	-1.7843966E+001	0	-9.4591618E-005
6.024919847797719E+001	9.4222939E-003	-1.7789875E+001	0	5.8095327E-005
6.025039847794687E+001	9.4222939E-003	-1.7739601E+001	0	3.9009457E-005
6.025139847792161E+001	9.3841171E-003	-1.7683598E+001	0	1.9923591E-005
6.025239847789635E+001	9.4413813E-003	-1.7630779E+001	0	3.9009457E-005
6.025359847786604E+001	9.3268519E-003	-1.7574141E+001	0	1.9923591E-005
6.025479847783572E+001	9.4032055E-003	-1.7516232E+001	0	-9.4591618E-005
6.025599847780541E+001	9.3841171E-003	-1.7451956E+001	0	-9.4591618E-005
6.025719847777509E+001	9.3459403E-003	-1.7394045E+001	0	-3.7334015E-005
6.025839847774478E+001	9.5368233E-003	-1.7336134E+001	0	-7.5505755E-005
6.025979847770941E+001	9.3841171E-003	-1.7282677E+001	0	-9.4591618E-005
6.026079847768415E+001	9.4604697E-003	-1.7226040E+001	0	3.9009457E-005
6.026219847764878E+001	9.3459403E-003	-1.7166220E+001	0	-3.7334015E-005
6.026319847762352E+001	9.3841171E-003	-1.7111492E+001	0	-3.7334015E-005
6.026459847758815E+001	9.5177349E-003	-1.7051035E+001	0	5.8095327E-005
6.026559847756289E+001	9.3650287E-003	-1.7000124E+001	0	-9.4591618E-005
6.026699847752752E+001	9.4222939E-003	-1.6945396E+001	0	8.3772284E-007
6.026819847749721E+001	9.4604697E-003	-1.6893211E+001	0	-1.8248145E-005
6.026939847746689E+001	9.4032055E-003	-1.6839756E+001	0	3.9009457E-005
6.027059847743658E+001	9.4032055E-003	-1.6777391E+001	0	-1.3276337E-004
6.027199847740121E+001	9.4604697E-003	-1.6726480E+001	0	3.9009457E-005
6.027299847737595E+001	9.4032055E-003	-1.6673025E+001	0	1.9923591E-005
6.027439847734058E+001	9.4222939E-003	-1.6617023E+001	0	5.8095327E-005
6.027599847730016E+001	9.4604697E-003	-1.6555931E+001	0	9.6267060E-005
6.027739847726480E+001	9.4413813E-003	-1.6498657E+001	0	-9.4591618E-005
6.027859847723448E+001	9.3077635E-003	-1.6443293E+001	0	7.7181190E-005
6.027979847720417E+001	9.4222939E-003	-1.6389835E+001	0	1.9923591E-005
6.028119847716880E+001	9.5559116E-003	-1.6333197E+001	0	-3.7334015E-005
6.028239847713849E+001	9.4986465E-003	-1.6281015E+001	0	8.3772284E-007
6.028379847710312E+001	9.4604697E-003	-1.6226921E+001	0	-1.1367749E-004
6.028519847706775E+001	9.3650287E-003	-1.6173464E+001	0	3.9009457E-005
6.028639847703744E+001	9.3268519E-003	-1.6122555E+001	0	-1.5184924E-004
6.028799847699702E+001	9.3268519E-003	-1.6055098E+001	0	1.3443880E-004
6.028959847695660E+001	9.4032055E-003	-1.5999732E+001	0	-1.8248145E-005
6.029079847692628E+001	9.4604697E-003	-1.5948185E+001	0	8.3772284E-007
6.029239847688586E+001	9.4222939E-003	-1.5884547E+001	0	-3.7334015E-005
6.029379847685050E+001	9.3841171E-003	-1.5830456E+001	0	3.9009457E-005
6.029519847681513E+001	9.4222939E-003	-1.5773181E+001	0	1.9923591E-005
6.029679847677471E+001	9.4795581E-003	-1.5713361E+001	0	-1.8248145E-005
6.029839847673429E+001	9.4222939E-003	-1.5654814E+001	0	1.9923591E-005
6.029979847669892E+001	9.4604697E-003	-1.5600720E+001	0	8.3772284E-007
6.030119847666356E+001	9.3650287E-003	-1.5550448E+001	0	-1.8248145E-005
6.030279847662314E+001	9.4032055E-003	-1.5489355E+001	0	5.8095327E-005
6.030439847658272E+001	9.4604697E-003	-1.5433352E+001	0	1.9923591E-005
6.030599847654230E+001	9.3841171E-003	-1.5375443E+001	0	8.3772284E-007
6.030759847650188E+001	9.3077635E-003	-1.5314350E+001	0	7.7181190E-005
6.030899847646651E+001	9.3841171E-003	-1.5261530E+001	0	7.7181190E-005
6.031099847641599E+001	9.4032055E-003	-1.5201075E+001	0	-3.7334015E-005
6.031239847638062E+001	9.3841171E-003	-1.5148253E+001	0	1.1535293E-004
6.031399847634020E+001	9.3841171E-003	-1.5088434E+001	0	-3.7334015E-005
6.031559847629978E+001	9.4413813E-003	-1.5038159E+001	0	1.1535293E-004
6.031719847625936E+001	9.4413813E-003	-1.4981522E+001	0	1.9923591E-005
6.031899847621389E+001	9.3841171E-003	-1.4915976E+001	0	8.3772284E-007
6.032079847616842E+001	9.4032055E-003	-1.4861247E+001	0	-9.4591618E-005
6.032239847612800E+001	9.4032055E-003	-1.4808427E+001	0	-1.8248145E-005
6.032379847609263E+001	9.4413813E-003	-1.4757516E+001	0	5.8095327E-005
6.032539847605221E+001	9.4986465E-003	-1.4705970E+001	0	-1.8248145E-005
6.032659847602190E+001	9.4986465E-003	-1.4653786E+001	0	7.7181190E-005
6.032839847597643E+001	9.4413813E-003	-1.4603513E+001	0	-3.7334015E-005
6.033019847593096E+001	9.4795581E-003	-1.4544329E+001	0	9.6267060E-005
6.033199847588548E+001	9.4413813E-003	-1.4488963E+001	0	8.3772284E-007
6.033379847584001E+001	9.4032055E-003	-1.4436143E+001	0	-5.6419882E-005
6.033539847579959E+001	9.3841171E-003	-1.4385232E+001	0	5.8095327E-005
6.033699847575917E+001	9.4986465E-003	-1.4333049E+001	0	3.9009457E-005
6.033879847571370E+001	9.4604697E-003	-1.4273866E+001	0	3.9009457E-005
6.034059847566823E+001	9.4413813E-003	-1.4223593E+001	0	-5.6419882E-005
6.034219847562781E+001	9.4032055E-003	-1.4165681E+001	0	5.8095327E-005
6.034419847557729E+001	9.4032055E-003	-1.4115406E+001	0	8.3772284E-007
6.034559847554192E+001	9.3841171E-003	-1.4062588E+001	0	1.9923591E-005
6.034759847549140E+001	9.4032055E-003	-1.4006585E+001	0	-7.5505755E-005
6.034939847544592E+001	9.3268519E-003	-1.3956311E+001	0	3.9009457E-005
6.035139847539540E+001	9.3459403E-003	-1.3894583E+001	0	8.3772284E-007
6.035319847534993E+001	9.3459403E-003	-1.3842399E+001	0	1.9923591E-005
6.035519847529940E+001	9.3268519E-003	-1.3784489E+001	0	1.9923591E-005
6.035699847525393E+001	9.4604697E-003	-1.3734214E+001	0	-5.6419882E-005
6.035879847520846E+001	9.3841171E-003	-1.3679485E+001	0	-1.8248145E-005
6.036059847516299E+001	9.3650287E-003	-1.3629211E+001	0	7.7181190E-005
6.036259847511246E+001	9.4413813E-003	-1.3570027E+001	0	1.3443880E-004
6.036459847506194E+001	9.3841171E-003	-1.3515299E+001	0	9.6267060E-005
6.036699847500131E+001	9.3459403E-003	-1.3450388E+001	0	7.7181190E-005
6.036879847495584E+001	9.4032055E-003	-1.3397569E+001	0	-1.8248145E-005
6.037079847490531E+001	9.5368233E-003	-1.3342203E+001	0	1.5352466E-004
6.037299847484974E+001	9.3459403E-003	-1.3284928E+001	0	-1.8248145E-005
6.037519847479416E+001	9.3650287E-003	-1.3232746E+001	0	1.9923591E-005
6.037679847475374E+001	9.3650287E-003	-1.3181198E+001	0	-1.8248145E-005
6.037919847469311E+001	9.3841171E-003	-1.3126470E+001	0	-7.5505755E-005
6.038119847464259E+001	9.4604697E-003	-1.3071105E+001	0	-3.7334015E-005
6.038319847459206E+001	9.3459403E-003	-1.3020831E+001	0	8.3772284E-007
6.038519847454154E+001	9.4795581E-003	-1.2962920E+001	0	1.9923591E-005
6.038759847448091E+001	9.4413813E-003	-1.2907555E+001	0	-5.6419882E-005
6.038939847443544E+001	9.4604697E-003	-1.2857280E+001	0	1.9923591E-005
6.039179847437481E+001	9.4413813E-003	-1.2800006E+001	0	1.9923591E-005
6.039399847431923E+001	9.4032055E-003	-1.2743368E+001	0	8.3772284E-007
6.039619847426366E+001	9.4604697E-003	-1.2691185E+001	0	8.3772284E-007
6.039799847421818E+001	9.4604697E-003	-1.2639637E+001	0	3.9009457E-005
6.040079847414745E+001	9.4222939E-003	-1.2575999E+001	0	-1.8248145E-005
6.040319847408682E+001	9.3268519E-003	-1.2518089E+001	0	9.6267060E-005
6.040559847402619E+001	9.4795581E-003	-1.2463361E+001	0	5.8095327E-005
6.040759847397567E+001	9.3841171E-003	-1.2411814E+001	0	9.6267060E-005
6.040999847391504E+001	9.2886752E-003	-1.2354540E+001	0	5.8095327E-005
6.041239847385441E+001	9.3268519E-003	-1.2303628E+001	0	1.5352466E-004
6.041439847380389E+001	9.4795581E-003	-1.2253355E+001	0	1.5352466E-004
6.041679847374326E+001	9.3841171E-003	-1.2200534E+001	0	8.3772284E-007
6.041899847368768E+001	9.4222939E-003	-1.2148352E+001	0	-5.6419882E-005
6.042139847362705E+001	9.4032055E-003	-1.2096169E+001	0	8.3772284E-007
6.042339847357653E+001	9.3459403E-003	-1.2045894E+001	0	-1.8248145E-005
6.042579847351590E+001	9.4032055E-003	-1.1991801E+001	0	-5.6419882E-005
6.042799847346032E+001	9.3650287E-003	-1.1937072E+001	0	-1.8248145E-005
6.043059847339464E+001	9.4604697E-003	-1.1885526E+001	0	3.9009457E-005
6.043279847333906E+001	9.4222939E-003	-1.1835252E+001	0	-5.6419882E-005
6.043539847327338E+001	9.3841171E-003	-1.1781159E+001	0	-1.8248145E-005
6.043799847320770E+001	9.3841171E-003	-1.1722612E+001	0	5.8095327E-005
6.044039847314707E+001	9.4222939E-003	-1.1672338E+001	0	1.9923591E-005
6.044299847308139E+001	9.3459403E-003	-1.1616337E+001	0	7.7181190E-005
6.044539847302076E+001	9.4795581E-003	-1.1566063E+001	0	8.3772284E-007
6.044779847296013E+001	9.3650287E-003	-1.1515788E+001	0	7.7181190E-005
6.045039847289445E+001	9.5559116E-003	-1.1463604E+001	0	-1.1367749E-004
6.045279847283382E+001	9.3459403E-003	-1.1411422E+001	0	3.9009457E-005
6.045519847277319E+001	9.4413813E-003	-1.1361147E+001	0	3.9009457E-005
6.045799847270246E+001	9.3459403E-003	-1.1308328E+001	0	8.3772284E-007
6.046039847264183E+001	9.4604697E-003	-1.1256782E+001	0	1.9923591E-005
6.046299847257615E+001	9.4032055E-003	-1.1204597E+001	0	7.7181190E-005
6.046559847251046E+001	9.4222939E-003	-1.1151778E+001	0	1.9923591E-005
6.046819847244478E+001	9.4604697E-003	-1.1095777E+001	0	1.9923591E-005
6.047099847237405E+001	9.4795581E-003	-1.1041684E+001	0	1.1535293E-004
6.047379847230332E+001	9.3650287E-003	-1.0986319E+001	0	-1.8248145E-005
6.047679847222753E+001	9.3459403E-003	-1.0930953E+001	0	3.9009457E-005
6.047939847216185E+001	9.3077635E-003	-1.0880043E+001	0	-3.7334015E-005
6.048199847209617E+001	9.3268519E-003	-1.0827859E+001	0	-5.6419882E-005
6.048499847202038E+001	9.4413813E-003	-1.0771858E+001	0	8.3772284E-007
6.048779847194965E+001	9.3650287E-003	-1.0719675E+001	0	3.9009457E-005
6.049059847187891E+001	9.4032055E-003	-1.0668764E+001	0	3.9009457E-005
6.049339847180818E+001	9.4604697E-003	-1.0618490E+001	0	8.3772284E-007
6.049619847173744E+001	9.3841171E-003	-1.0568216E+001	0	7.7181190E-005
6.049859847167681E+001	9.3650287E-003	-1.0514124E+001	0	7.7181190E-005
6.050179847159598E+001	9.4032055E-003	-1.0463212E+001	0	-5.6419882E-005
6.050479847152019E+001	9.3268519E-003	-1.0406575E+001	0	5.8095327E-005
6.050779847144440E+001	9.5559116E-003	-1.0353755E+001	0	1.3443880E-004
6.051079847136862E+001	9.3841171E-003	-1.0303481E+001	0	8.3772284E-007
6.051339847130293E+001	9.3268519E-003	-1.0249389E+001	0	8.3772284E-007
6.051679847121704E+001	9.4222939E-003	-1.0197205E+001	0	5.8095327E-005
6.051979847114126E+001	9.3841171E-003	-1.0146931E+001	0	5.8095327E-005
6.052279847106547E+001	9.3459403E-003	-1.0085839E+001	0	-3.7334015E-005
6.052639847097453E+001	9.4604697E-003	-1.0034291E+001	0	7.7181190E-005
6.052939847089874E+001	9.4604697E-003	-9.9821081E+000	0	-9.4591618E-005
6.053199847083306E+001	9.3268519E-003	-9.9305611E+000	0	3.9009457E-005
6.053519847075222E+001	9.4222939E-003	-9.8790140E+000	0	7.7181190E-005
6.053839847067138E+001	9.3268519E-003	-9.8255587E+000	0	7.7181190E-005
6.054179847058549E+001	9.4032055E-003	-9.7695560E+000	0	-7.5505755E-005
6.054499847050465E+001	9.4032055E-003	-9.7192831E+000	0	5.8095327E-005
6.054839847041876E+001	9.2504984E-003	-9.6626444E+000	0	1.1535293E-004
6.055199847032782E+001	9.3077635E-003	-9.6110973E+000	0	5.8095327E-005
6.055539847024193E+001	9.4986465E-003	-9.5531874E+000	0	-3.7334015E-005
6.055859847016109E+001	9.4222939E-003	-9.5016403E+000	0	1.3443880E-004
6.056219847007014E+001	9.3268519E-003	-9.4488201E+000	0	8.3772284E-007
6.056559846998425E+001	9.4032055E-003	-9.3972731E+000	0	-5.6419882E-005
6.056879846990341E+001	9.3841171E-003	-9.3444538E+000	0	1.9923591E-005
6.057239846981247E+001	9.3268519E-003	-9.2903614E+000	0	8.3772284E-007
6.057599846972153E+001	9.3841171E-003	-9.2375412E+000	0	3.9009457E-005
6.057939846963563E+001	9.4413813E-003	-9.1847219E+000	0	-9.4591618E-005
6.058279846954974E+001	9.3841171E-003	-9.1331758E+000	0	-3.7334015E-005
6.058679846944870E+001	9.4032055E-003	-9.0759010E+000	0	7.7181190E-005
6.059019846936280E+001	9.3077635E-003	-9.0218086E+000	0	1.9923591E-005
6.059419846926176E+001	9.4222939E-003	-8.9638977E+000	0	5.8095327E-005
6.059819846916071E+001	9.3077635E-003	-8.9117146E+000	0	3.9009457E-005
6.060179846906976E+001	9.3077635E-003	-8.8608036E+000	0	7.7181190E-005
6.060559846897377E+001	9.3841171E-003	-8.8086205E+000	0	8.3772284E-007
6.060959846887272E+001	9.4222939E-003	-8.7532558E+000	0	8.3772284E-007
6.061319846878177E+001	9.4222939E-003	-8.7004356E+000	0	-5.6419882E-005
6.061719846868073E+001	9.3268519E-003	-8.6495256E+000	0	5.8095327E-005
6.062079846858978E+001	9.3650287E-003	-8.5960693E+000	0	-7.5505755E-005
6.062519846847863E+001	9.3650287E-003	-8.5426130E+000	0	3.9009457E-005
6.062919846837758E+001	9.4222939E-003	-8.4897938E+000	0	-9.4591618E-005
6.063319846827653E+001	9.3459403E-003	-8.4357014E+000	0	3.9009457E-005
6.063739846817043E+001	9.4032055E-003	-8.3828821E+000	0	-5.6419882E-005
6.064139846806938E+001	9.4795581E-003	-8.3326073E+000	0	-1.8248145E-005
6.064619846794812E+001	9.4032055E-003	-8.2746964E+000	0	1.9923591E-005
6.065059846783697E+001	9.2886752E-003	-8.2218771E+000	0	1.5352466E-004
6.065399846775108E+001	9.4032055E-003	-8.1709661E+000	0	1.9923591E-005
6.065919846761972E+001	9.3650287E-003	-8.1156015E+000	0	3.9009457E-005
6.066359846750856E+001	9.4795581E-003	-8.0589628E+000	0	-1.8248145E-005
6.066779846740246E+001	9.4604697E-003	-8.0080528E+000	0	1.3443880E-004
6.067279846727615E+001	9.4986465E-003	-7.9577775E+000	0	7.7181190E-005
6.067659846718016E+001	9.3841171E-003	-7.9075041E+000	0	-1.8248145E-005
6.068179846704879E+001	9.4604697E-003	-7.8546844E+000	0	1.1535293E-004
6.068599846694269E+001	9.3841171E-003	-7.8037739E+000	0	3.9009457E-005
6.069119846681133E+001	9.3650287E-003	-7.7503185E+000	0	1.1535293E-004
6.069559846670018E+001	9.3650287E-003	-7.6968622E+000	0	-5.6419882E-005
6.070099846656376E+001	9.4222939E-003	-7.6408601E+000	0	-1.3276337E-004
6.070639846642734E+001	9.3268519E-003	-7.5874038E+000	0	-1.3276337E-004
6.071119846630609E+001	9.4222939E-003	-7.5333123E+000	0	3.9009457E-005
6.071699846615957E+001	9.3650287E-003	-7.4792194E+000	0	-3.7334015E-005
6.072199846603326E+001	9.3650287E-003	-7.4263997E+000	0	-1.8248145E-005
6.072739846589684E+001	9.4222939E-003	-7.3761253E+000	0	-5.6419882E-005
6.073279846576042E+001	9.3650287E-003	-7.3252149E+000	0	-3.7334015E-005
6.073819846562401E+001	9.4032055E-003	-7.2730322E+000	0	9.6267060E-005
6.074419846547244E+001	9.4222939E-003	-7.2176666E+000	0	3.9009457E-005
6.074939846534107E+001	9.4795581E-003	-7.1635737E+000	0	1.9923591E-005
6.075539846518950E+001	9.3841171E-003	-7.1132998E+000	0	7.7181190E-005
6.076079846505309E+001	9.4032055E-003	-7.0611167E+000	0	-9.4591618E-005
6.076739846488636E+001	9.3650287E-003	-7.0089331E+000	0	-1.8248145E-005
6.077299846474489E+001	9.3841171E-003	-6.9522958E+000	0	-3.7334015E-005
6.078019846456300E+001	9.3077635E-003	-6.8982029E+000	0	7.7181190E-005
6.078659846440132E+001	9.4413813E-003	-6.8460193E+000	0	3.9009457E-005
6.079299846423964E+001	9.4795581E-003	-6.7957458E+000	0	8.3772284E-007
6.079919846408302E+001	9.4032055E-003	-6.7429261E+000	0	8.3772284E-007
6.080659846389608E+001	9.3459403E-003	-6.6875601E+000	0	8.3772284E-007
6.081399846370914E+001	9.4604697E-003	-6.6372867E+000	0	-3.7334015E-005
6.082039846354746E+001	9.2695868E-003	-6.5857396E+000	0	-1.8248145E-005
6.082699846338073E+001	9.3650287E-003	-6.5354652E+000	0	3.9009457E-005
6.083439846319379E+001	9.4222939E-003	-6.4826460E+000	0	-1.8248145E-005
6.084159846301191E+001	9.4413813E-003	-6.4323711E+000	0	-1.5184924E-004
6.084959846280981E+001	9.3268519E-003	-6.3782792E+000	0	-5.6419882E-005
6.085719846261782E+001	9.2886752E-003	-6.3273683E+000	0	8.3772284E-007
6.086579846240056E+001	9.4032055E-003	-6.2720032E+000	0	1.1535293E-004
6.087339846220857E+001	9.4222939E-003	-6.2217293E+000	0	8.3772284E-007
6.088139846200647E+001	9.4604697E-003	-6.1708188E+000	0	-3.7334015E-005
6.089059846177406E+001	9.4032055E-003	-6.1199083E+000	0	1.9923591E-005
6.089899846156186E+001	9.2886752E-003	-6.0639067E+000	0	1.9923591E-005
6.090859846131934E+001	9.3459403E-003	-6.0117235E+000	0	8.3772284E-007
6.091699846110714E+001	9.4413813E-003	-5.9614496E+000	0	-5.6419882E-005
6.092659846086462E+001	9.4413813E-003	-5.9086299E+000	0	1.9169640E-004
6.093619846062211E+001	9.4986465E-003	-5.8570828E+000	0	1.9923591E-005
6.094699846034928E+001	9.3841171E-003	-5.8017178E+000	0	5.8095327E-005
6.095679846010171E+001	9.4604697E-003	-5.7501707E+000	0	1.9923591E-005
6.096679845984909E+001	9.2886752E-003	-5.6986241E+000	0	-7.5505755E-005
6.097719845958636E+001	9.4032055E-003	-5.6464405E+000	0	9.6267060E-005
6.098779845931858E+001	9.3650287E-003	-5.5942569E+000	0	-3.7334015E-005
6.099899845903565E+001	9.4413813E-003	-5.5427103E+000	0	1.9923591E-005
6.100959845876787E+001	9.2504984E-003	-5.4898906E+000	0	-1.8248145E-005
6.102339845841925E+001	9.4413813E-003	-5.4326162E+000	0	9.6267060E-005
6.103599845810095E+001	9.4413813E-003	-5.3817058E+000	0	5.8095327E-005
6.104799845779780E+001	9.4222939E-003	-5.3301592E+000	0	1.9923591E-005
6.105939845750981E+001	9.3650287E-003	-5.2798848E+000	0	1.5352466E-004
6.107219845718646E+001	9.4222939E-003	-5.2296104E+000	0	1.9923591E-005
6.108639845682774E+001	9.4604697E-003	-5.1793365E+000	0	9.6267060E-005
6.109899845650943E+001	9.3459403E-003	-5.1284256E+000	0	-5.6419882E-005
6.111199845618103E+001	9.2314100E-003	-5.0743337E+000	0	1.1535293E-004
6.112719845579704E+001	9.3841171E-003	-5.0240588E+000	0	7.7181190E-005
6.114179845542822E+001	9.3650287E-003	-4.9731488E+000	0	3.9009457E-005
6.115639845505939E+001	9.4032055E-003	-4.9184198E+000	0	9.6267060E-005
6.117259845465014E+001	9.5177349E-003	-4.8668728E+000	0	3.9009457E-005
6.118659845429647E+001	9.4986465E-003	-4.8159623E+000	0	1.5352466E-004
6.120259845389228E+001	9.4604697E-003	-4.7656879E+000	0	-7.5505755E-005
6.121819845349819E+001	9.4222939E-003	-4.7122321E+000	0	5.8095327E-005
6.123599845304852E+001	9.4413813E-003	-4.6613216E+000	0	7.7181190E-005
6.125239845263422E+001	9.3650287E-003	-4.6104112E+000	0	-5.6419882E-005
6.127019845218456E+001	9.3650287E-003	-4.5569553E+000	0	8.3772284E-007
6.128819845172984E+001	9.4413813E-003	-4.5034990E+000	0	-5.6419882E-005
6.130719845124986E+001	9.3268519E-003	-4.4532247E+000	0	3.9009457E-005
6.132359845083556E+001	9.4604697E-003	-4.4029508E+000	0	5.8095327E-005
6.134299845034548E+001	9.5368233E-003	-4.3501306E+000	0	1.5352466E-004
6.136099844989076E+001	9.4032055E-003	-4.2992206E+000	0	9.6267060E-005
6.140539844876912E+001	9.3268519E-003	-4.2063279E+000	0	-1.8248145E-005
6.142439844828914E+001	9.3077635E-003	-4.1561279E+000	0	-1.8248145E-005
6.144399844779400E+001	9.4032055E-003	-4.1061192E+000	0	7.7181190E-005
6.146399844728876E+001	9.3459403E-003	-4.0557923E+000	0	8.3772284E-007
6.148459844676836E+001	9.3650287E-003	-4.0054655E+000	0	-3.7334015E-005
6.150519844624796E+001	9.4222939E-003	-3.9551380E+000	0	1.1535293E-004
6.152619844571745E+001	9.3268519E-003	-3.9050019E+000	0	-1.8248145E-005
6.154759844517685E+001	9.4413813E-003	-3.8546753E+000	0	-1.8248145E-005
6.156899844463624E+001	9.3650287E-003	-3.8043478E+000	0	5.8095327E-005
6.159099844408047E+001	9.5750000E-003	-3.7542119E+000	0	8.3772284E-007
6.161339844351460E+001	9.4413813E-003	-3.7036304E+000	0	-1.7093509E-004
6.163619844293862E+001	9.3841171E-003	-3.6534944E+000	0	5.8095327E-005
6.165959844234749E+001	9.4032055E-003	-3.6027853E+000	0	3.9009457E-005
6.168339844174625E+001	9.4222939E-003	-3.5520766E+000	0	-3.7334015E-005
6.170719844114501E+001	9.4222939E-003	-3.5020678E+000	0	1.3443880E-004
6.173159844052861E+001	9.5177349E-003	-3.4520590E+000	0	1.5352466E-004
6.175639843990211E+001	9.4222939E-003	-3.4019861E+000	0	3.9009457E-005
6.178139843927056E+001	9.4222939E-003	-3.3514683E+000	0	1.1535293E-004
6.180739843861375E+001	9.4413813E-003	-3.3008869E+000	0	-5.6419882E-005
6.183379843794683E+001	9.4032055E-003	-3.2504327E+000	0	-3.7334015E-005
6.186079843726475E+001	9.4413813E-003	-3.1993423E+000	0	8.3772284E-007
6.188899843655236E+001	9.3268519E-003	-3.1491425E+000	0	1.1535293E-004
6.191699843584502E+001	9.3459403E-003	-3.0986247E+000	0	1.9923591E-005
6.194579843511747E+001	9.3841171E-003	-3.0486159E+000	0	1.5352466E-004
6.197499843437981E+001	9.3077635E-003	-2.9981618E+000	0	3.9009457E-005
6.200519843361690E+001	9.3268519E-003	-2.9481525E+000	0	7.7181190E-005
6.203639843282872E+001	9.3650287E-003	-2.8975074E+000	0	-1.8248145E-005
6.206859843201528E+001	9.4032055E-003	-2.8463533E+000	0	1.9923591E-005
6.210159843118163E+001	9.3650287E-003	-2.7963445E+000	0	1.9923591E-005
6.213599843031261E+001	9.3077635E-003	-2.7461445E+000	0	5.8095327E-005
6.217059842943854E+001	9.4032055E-003	-2.6960087E+000	0	8.3772284E-007
6.220679842852405E+001	9.3268519E-003	-2.6458726E+000	0	8.3772284E-007
6.224379842758935E+001	9.4032055E-003	-2.5951636E+000	0	-5.6419882E-005
6.228299842659908E+001	9.4604697E-003	-2.5449641E+000	0	-3.7334015E-005
6.232259842559870E+001	9.3841171E-003	-2.4949551E+000	0	1.9923591E-005
6.236479842453264E+001	9.2886752E-003	-2.4446919E+000	0	-3.7334015E-005
6.240819842343626E+001	9.3650287E-003	-2.3945556E+000	0	-3.7334015E-005
6.245319842229947E+001	9.4222939E-003	-2.3442922E+000	0	-9.4591618E-005
6.250039842110709E+001	9.4032055E-003	-2.2939017E+000	0	7.7181190E-005
6.254939841986925E+001	9.3459403E-003	-2.2432566E+000	0	1.1535293E-004
6.260119841856067E+001	9.4222939E-003	-2.1929295E+000	0	8.3772284E-007
6.265539841719146E+001	9.3650287E-003	-2.1429207E+000	0	5.8095327E-005
6.271139841577678E+001	9.4413813E-003	-2.0925937E+000	0	3.9009457E-005
6.277039841428632E+001	9.4604697E-003	-2.0421395E+000	0	-1.8248145E-005
6.283399841267965E+001	9.3650287E-003	-1.9916849E+000	0	-3.7334015E-005
6.290039841100224E+001	9.3268519E-003	-1.9414217E+000	0	-1.8248145E-005
6.297079840922379E+001	9.4032055E-003	-1.8912855E+000	0	8.3772284E-007
6.304259840740997E+001	9.3268519E-003	-1.8412765E+000	0	-1.8248145E-005
6.312279840538395E+001	9.3077635E-003	-1.7904406E+000	0	8.3772284E-007
6.320659840326698E+001	9.4604697E-003	-1.7403682E+000	0	5.8095327E-005
6.329659840099339E+001	9.4795581E-003	-1.6902320E+000	0	3.9009457E-005
6.339259839856823E+001	9.3841171E-003	-1.6401596E+000	0	8.3772284E-007
6.349439839599654E+001	9.3459403E-003	-1.5898324E+000	0	1.9923591E-005
6.360579839318234E+001	9.2314100E-003	-1.5397600E+000	0	1.3443880E-004
6.372299839022162E+001	9.3841171E-003	-1.4891785E+000	0	-9.4591618E-005
6.385099838698807E+001	9.4604697E-003	-1.4390424E+000	0	-7.5505755E-005
6.398899838350189E+001	9.3077635E-003	-1.3889061E+000	0	3.9009457E-005
6.413859837972268E+001	9.4032055E-003	-1.3388973E+000	0	-1.8248145E-005
6.430079837562516E+001	9.4032055E-003	-1.2885066E+000	0	9.6267060E-005
6.448019837109314E+001	9.3841171E-003	-1.2383707E+000	0	1.1535293E-004
6.467439836618723E+001	9.1932341E-003	-1.1883618E+000	0	3.9009457E-005
6.488519836086198E+001	9.4032055E-003	-1.1383529E+000	0	1.3443880E-004
6.512419835482433E+001	9.2886752E-003	-1.0879623E+000	0	5.8095327E-005
6.538539834822586E+001	9.3459403E-003	-1.0377624E+000	0	3.9009457E-005
6.567239834097563E+001	9.4222939E-003	-9.8775351E-001	0	9.6267060E-005
6.599559833281091E+001	9.3268519E-003	-9.3723559E-001	0	7.7181190E-005
6.635939832362055E+001	9.3077635E-003	-8.8703585E-001	0	1.3443880E-004
6.676539831336413E+001	9.3650287E-003	-8.3702695E-001	0	-3.7334015E-005
6.722639830171829E+001	9.4604697E-003	-7.8689086E-001	0	9.6267060E-005
6.774999828849104E+001	9.3459403E-003	-7.3688203E-001	0	1.9923591E-005
6.835259827326809E+001	9.4222939E-003	-6.8610966E-001	0	3.9009457E-005
6.906999825514504E+001	9.5368233E-003	-6.3584626E-001	0	1.9923591E-005
6.990899823395011E+001	9.3650287E-003	-5.8564645E-001	0	5.8095327E-005
7.091339820857684E+001	9.4604697E-003	-5.3557396E-001	0	5.8095327E-005
7.213339817775704E+001	9.3459403E-003	-4.8518336E-001	0	1.9923591E-005
7.375639813675662E+001	9.4222939E-003	-4.3514833E-001	0	8.3772284E-007
7.571899808717717E+001	9.3459403E-003	-3.8514605E-001	0	1.9923591E-005
7.829019802222319E+001	9.4604697E-003	-3.3507377E-001	0	-1.8248145E-005
8.183559793265886E+001	9.4032055E-003	-2.8503972E-001	0	-3.7334015E-005
8.704079780116444E+001	9.3459403E-003	-2.3498018E-001	0	1.9923591E-005
9.541299758966488E+001	9.4032055E-003	-1.8477422E-001	0	1.1535293E-004
1.054129973370436E+002	9.3650287E-003	-1.4913291E-001	0	1.3443880E-004
1.154129970844224E+002	9.3077635E-003	-1.2500706E-001	0	3.9009457E-005
1.254129968318011E+002	9.2886752E-003	-1.0820172E-001	0	-3.7334015E-005
1.354129965791799E+002	9.4604697E-003	-9.5069364E-002	0	7.7181190E-005
1.454129963265586E+002	9.3459403E-003	-8.4725179E-002	0	9.6267060E-005
1.554129960739374E+002	9.3841171E-003	-7.6023325E-002	0	7.7181190E-005
1.654129958213161E+002	9.4413813E-003	-6.8893783E-002	0	1.1535293E-004
1.754129955686949E+002	9.3268519E-003	-6.2579051E-002	0	1.5352466E-004
1.854129953160736E+002	9.3650287E-003	-5.7282824E-002	0	8.3772284E-007
1.954129950634524E+002	9.3268519E-003	-5.2826859E-002	0	-1.8248145E-005
2.054129948108312E+002	9.2886752E-003	-4.8561867E-002	0	5.8095327E-005
2.154129945582099E+002	9.4604697E-003	-4.5468159E-002	0	1.9923591E-005
2.254129943055887E+002	9.3077635E-003	-4.2153236E-002	0	5.8095327E-005
2.354129940529674E+002	9.3841171E-003	-3.9173912E-002	0	7.7181190E-005
2.454129938003462E+002	9.3650287E-003	-3.6424305E-002	0	-9.4591618E-005
2.554129935477249E+002	9.3650287E-003	-3.4008779E-002	0	9.6267060E-005
2.654129932951037E+002	9.4604697E-003	-3.1590063E-002	0	1.1535293E-004
2.754129930424824E+002	9.2886752E-003	-2.9687423E-002	0	3.9009457E-005
2.854129927898612E+002	9.3268519E-003	-2.7777145E-002	0	-1.8248145E-005
2.954129925372399E+002	9.4222939E-003	-2.5998583E-002	0	7.7181190E-005
3.054129922846187E+002	9.4413813E-003	-2.4571922E-002	0	1.3443880E-004
3.154129920319974E+002	9.3268519E-003	-2.3184074E-002	0	7.7181190E-005
3.254129917793762E+002	9.4032055E-003	-2.2030398E-002	0	5.8095327E-005
3.354129915267549E+002	9.2886752E-003	-2.0951807E-002	0	1.5352466E-004
3.454129912741337E+002	9.4604697E-003	-1.9943854E-002	0	9.6267060E-005
3.554129910215124E+002	9.2886752E-003	-1.8983623E-002	0	5.8095327E-005
3.654129907688912E+002	9.4222939E-003	-1.7944487E-002	0	7.7181190E-005
3.754129905162699E+002	9.3459403E-003	-1.7070798E-002	0	-1.8248145E-005
3.854129902636487E+002	9.3268519E-003	-1.6338374E-002	0	1.1535293E-004
3.954129900110274E+002	9.3459403E-003	-1.5660042E-002	0	9.6267060E-005
4.054129897584062E+002	9.3459403E-003	-1.4915531E-002	0	1.9923591E-005
4.154129895057849E+002	9.4032055E-003	-1.4418553E-002	0	1.9923591E-005
4.254129892531637E+002	9.3841171E-003	-1.3906301E-002	0	-5.6419882E-005
4.354129890005424E+002	9.3459403E-003	-1.3279512E-002	0	8.3772284E-007
4.454129887479212E+002	9.4795581E-003	-1.2851895E-002	0	9.6267060E-005
4.554129884952999E+002	9.4032055E-003	-1.2296374E-002	0	7.7181190E-005
4.654129882426787E+002	9.4032055E-003	-1.1904391E-002	0	-1.3276337E-004
4.754129879900574E+002	9.3841171E-003	-1.1471682E-002	0	1.9923591E-005
4.854129877374362E+002	9.3459403E-003	-1.1073336E-002	0	7.7181190E-005
4.954129874848149E+002	9.4032055E-003	-1.0791440E-002	0	9.6267060E-005
5.054129872321937E+002	9.4222939E-003	-1.0513362E-002	0	3.9009457E-005
5.154129869795725E+002	9.3268519E-003	-1.0146832E-002	0	1.9923591E-005
5.254129867269512E+002	9.3841171E-003	-9.8114833E-003	0	1.9923591E-005
5.354129864743300E+002	9.3841171E-003	-1.1154789E-002	0	-3.7334015E-005
5.454129862217087E+002	9.4032055E-003	-9.4844066E-003	0	8.3772284E-007
5.554129859690875E+002	9.2314100E-003	-9.1446033E-003	0	3.9009457E-005
5.654129857164662E+002	9.4032055E-003	-8.9460667E-003	0	1.9923591E-005
5.754129854638450E+002	9.4032055E-003	-8.6285360E-003	0	5.8095327E-005
5.854129852112237E+002	9.2695868E-003	-8.3803646E-003	0	1.5352466E-004
5.954129849586025E+002	9.4413813E-003	-8.1646470E-003	0	3.9009457E-005
6.054129847059812E+002	9.3650287E-003	-8.1080124E-003	0	1.9923591E-005
6.154129844533600E+002	9.4222939E-003	-7.8744786E-003	0	1.7261053E-004
6.254129842007387E+002	9.3650287E-003	-7.5715818E-003	0	1.1535293E-004
6.354129839481175E+002	9.4413813E-003	-7.4487696E-003	0	1.5352466E-004
6.454129836954962E+002	9.3841171E-003	-7.3055942E-003	0	8.3772284E-007
6.554129834428750E+002	9.3077635E-003	-7.1853264E-003	0	9.6267060E-005
6.654129831902537E+002	9.4032055E-003	-7.0249704E-003	0	8.3772284E-007
6.754129829376325E+002	9.3650287E-003	-6.8881577E-003	0	7.7181190E-005
6.854129826850112E+002	9.3650287E-003	-6.7239832E-003	0	8.3772284E-007
6.954129824323900E+002	9.3459403E-003	-6.6399868E-003	0	-5.6419882E-005
7.054129821797687E+002	9.3459403E-003	-6.4490861E-003	0	3.9009457E-005
7.154129819271475E+002	9.2886752E-003	-6.3447272E-003	0	9.6267060E-005
7.254129816745262E+002	9.3268519E-003	-6.1690994E-003	0	-7.5505755E-005
7.354129814219050E+002	9.3841171E-003	-6.1767353E-003	0	3.9009457E-005
7.454129811692837E+002	9.4222939E-003	-6.0291053E-003	0	1.5352466E-004
7.554129809166625E+002	9.4032055E-003	-5.8102058E-003	0	1.1535293E-004
7.654129806640412E+002	9.4032055E-003	-5.7185735E-003	0	9.6267060E-005
7.754129804114200E+002	9.4032055E-003	-5.6549399E-003	0	1.9923591E-005
7.854129801587987E+002	9.3077635E-003	-5.6937565E-003	0	9.6267060E-005
7.954129799061775E+002	9.3459403E-003	-5.3456808E-003	0	3.9009457E-005
8.054129796535562E+002	9.3268519E-003	-5.3437715E-003	0	-7.5505755E-005
8.154129794009350E+002	9.3650287E-003	-5.3883153E-003	0	1.3443880E-004
8.254129791483138E+002	9.4222939E-003	-5.2285949E-003	0	1.1535293E-004
8.354129788956925E+002	9.3841171E-003	-5.1344172E-003	0	1.9923591E-005
8.454129786430713E+002	9.3459403E-003	-5.0975098E-003	0	5.8095327E-005
8.554129783904500E+002	9.4032055E-003	-4.9218815E-003	0	8.3772284E-007
8.654129781378288E+002	9.3077635E-003	-4.9931505E-003	0	1.1535293E-004
8.754129778852075E+002	9.3841171E-003	-4.8550661E-003	0	1.1535293E-004
8.854129776325863E+002	9.4222939E-003	-4.7691609E-003	0	1.9923591E-005
8.954129773799650E+002	9.4222939E-003	-4.6851644E-003	0	-1.8248145E-005
9.054129771273438E+002	9.3650287E-003	-4.9600615E-003	0	-3.7334015E-005
9.154129768747225E+002	9.3459403E-003	-4.6323482E-003	0	7.7181190E-005
9.254129766221013E+002	9.3650287E-003	-4.6081683E-003	0	7.7181190E-005
9.354129763694800E+002	9.3841171E-003	-4.4843210E-003	0	1.9923591E-005
9.454129761168588E+002	9.2886752E-003	-4.4487263E-003	0	-9.4591618E-005
9.554129758642375E+002	9.3459403E-003	-4.3984219E-003	0	8.3772284E-007
9.654129756116163E+002	9.4222939E-003	-4.3229656E-003	0	-5.6419882E-005
9.754129753589950E+002	9.3650287E-003	-4.2299344E-003	0	3.9009457E-005
9.854129751063738E+002	9.3268519E-003	-4.1856156E-003	0	1.9923591E-005
9.954129748537525E+002	9.4795581E-003	-4.1537140E-003	0	9.6267060E-005
1.005412974601131E+003	9.3650287E-003	-4.0949406E-003	0	3.9009457E-005
1.015412974348510E+003	9.3268519E-003	-4.0535508E-003	0	7.7181190E-005
1.025412974095889E+003	9.4222939E-003	-4.0378864E-003	0	5.8095327E-005
1.035412973843268E+003	9.3650287E-003	-3.9530061E-003	0	5.8095327E-005
1.045412973590646E+003	9.3650287E-003	-3.9271535E-003	0	3.9009457E-005
1.055412973338025E+003	9.3459403E-003	-3.8697810E-003	0	-7.5505755E-005
1.065412973085404E+003	9.3459403E-003	-3.8213870E-003	0	5.8095327E-005
1.075412972832783E+003	9.4032055E-003	-3.7982091E-003	0	1.9923591E-005
1.085412972580161E+003	9.3268519E-003	-3.7738208E-003	0	7.7181190E-005
1.095412972327540E+003	9.4032055E-003	-3.6753777E-003	0	5.8095327E-005
1.105412972074919E+003	9.4604697E-003	-3.6642978E-003	0	7.7181190E-005
1.115412971822298E+003	9.2695868E-003	-3.6536003E-003	0	9.6267060E-005
1.125412971569676E+003	9.3650287E-003	-3.5918979E-003	0	7.7181190E-005
1.135412971317055E+003	9.4032055E-003	-3.5440132E-003	0	-1.8248145E-005
1.145412971064434E+003	9.4032055E-003	-3.5152317E-003	0	8.3772284E-007
1.155412970811813E+003	9.3841171E-003	-3.4705310E-003	0	9.6267060E-005
1.165412970559191E+003	9.2504984E-003	-3.4671563E-003	0	1.5352466E-004
1.175412970306570E+003	9.4032055E-003	-3.4052629E-003	0	1.9923591E-005
1.185412970053949E+003	9.3841171E-003	-3.4104839E-003	0	1.9923591E-005
1.195412969801328E+003	9.3459403E-003	-3.3412680E-003	0	7.7181190E-005
1.205412969548706E+003	9.3841171E-003	-3.2912185E-003	0	2.1078227E-004
1.215412969296085E+003	9.3650287E-003	-3.2790562E-003	0	8.3772284E-007
1.225412969043464E+003	9.3077635E-003	-3.2668305E-003	0	3.9009457E-005
1.235412968790843E+003	9.2695868E-003	-3.2594439E-003	0	-1.8248145E-005
1.245412968538221E+003	9.2886752E-003	-3.1941759E-003	0	7.7181190E-005
1.255412968285600E+003	9.3268519E-003	-3.1758370E-003	0	9.6267060E-005
1.265412968032979E+003	9.3077635E-003	-3.1276338E-003	0	7.7181190E-005
1.275412967780358E+003	9.3841171E-003	-3.0918482E-003	0	7.7181190E-005
1.285412967527736E+003	9.4222939E-003	-3.0888554E-003	0	1.1535293E-004
1.295412967275115E+003	9.4413813E-003	-3.0423079E-003	0	3.9009457E-005
1.305412967022494E+003	9.3650287E-003	-3.0481024E-003	0	3.9009457E-005
1.315412966769873E+003	9.4222939E-003	-3.0203396E-003	0	1.9923591E-005
1.325412966517251E+003	9.3459403E-003	-3.0003453E-003	0	3.9009457E-005
1.335412966264630E+003	9.3650287E-003	-2.9445647E-003	0	-7.5505755E-005
1.345412966012009E+003	9.4413813E-003	-2.9278819E-003	0	7.7181190E-005
1.355412965759388E+003	9.4032055E-003	-2.9105616E-003	0	1.9923591E-005
1.365412965506766E+003	9.3077635E-003	-2.8761765E-003	0	3.9009457E-005
1.375412965254145E+003	9.4032055E-003	-2.8523616E-003	0	9.6267060E-005
1.385412965001524E+003	9.3459403E-003	-2.8033946E-003	0	7.7181190E-005
1.395412964748903E+003	9.3841171E-003	-2.8084887E-003	0	9.6267060E-005
1.405412964496281E+003	9.3841171E-003	-2.7669081E-003	0	-7.5505755E-005
1.415412964243660E+003	9.4032055E-003	-2.7457038E-003	0	7.7181190E-005
1.425412963991039E+003	9.1741458E-003	-2.7478049E-003	0	-1.8248145E-005
1.435412963738418E+003	9.2886752E-003	-2.7420104E-003	0	9.6267060E-005
1.445412963485796E+003	9.3650287E-003	-2.7215707E-003	0	1.1535293E-004
1.455412963233175E+003	9.4413813E-003	-2.6664906E-003	0	1.1535293E-004
1.465412962980554E+003	9.2314100E-003	-2.6380909E-003	0	3.9009457E-005
1.475412962727933E+003	9.3077635E-003	-2.5977839E-003	0	1.7261053E-004
1.485412962475311E+003	9.3077635E-003	-2.6318505E-003	0	8.3772284E-007
1.495412962222690E+003	9.3650287E-003	-2.6102643E-003	0	8.3772284E-007
1.505412961970069E+003	9.3650287E-003	-2.5760066E-003	0	3.9009457E-005
1.515412961717448E+003	9.3268519E-003	-2.5782988E-003	0	1.1535293E-004
1.525412961464826E+003	9.3268519E-003	-2.5722496E-003	0	3.9009457E-005
1.535412961212205E+003	9.3841171E-003	-2.5157686E-003	0	-5.6419882E-005
1.545412960959584E+003	9.3459403E-003	-2.4991494E-003	0	1.3443880E-004
1.555412960706963E+003	9.4032055E-003	-2.4976211E-003	0	3.9009457E-005
1.565412960454341E+003	9.2886752E-003	-2.4783909E-003	0	9.6267060E-005
1.575412960201720E+003	9.3268519E-003	-2.4699220E-003	0	1.3443880E-004
1.585412959949099E+003	9.3650287E-003	-2.4723418E-003	0	5.8095327E-005
1.595412959696478E+003	9.3841171E-003	-2.4112123E-003	0	-5.6419882E-005
1.605412959443856E+003	9.4032055E-003	-2.4079012E-003	0	3.9009457E-005
1.615412959191235E+003	9.3077635E-003	-2.3833860E-003	0	5.8095327E-005
1.625412958938614E+003	9.4032055E-003	-2.3586794E-003	0	-5.6419882E-005
1.635412958685993E+003	9.3268519E-003	-2.3494465E-003	0	7.7181190E-005
1.645412958433371E+003	9.4032055E-003	-2.3265865E-003	0	3.9009457E-005
1.655412958180750E+003	9.3268519E-003	-2.3326359E-003	0	1.9923591E-005
1.665412957928129E+003	9.4604697E-003	-2.3052550E-003	0	-5.6419882E-005
1.675412957675508E+003	9.3459403E-003	-2.2929655E-003	0	7.7181190E-005
1.685412957422886E+003	9.2886752E-003	-2.2935385E-003	0	1.1535293E-004
1.695412957170265E+003	9.3459403E-003	-2.2434890E-003	0	5.8095327E-005
1.705412956917644E+003	9.3459403E-003	-2.2234949E-003	0	9.6267060E-005
1.715412956665023E+003	9.4032055E-003	-2.2499203E-003	0	8.3772284E-007
1.725412956412401E+003	9.4986465E-003	-2.2483922E-003	0	1.1535293E-004
1.735412956159780E+003	9.4413813E-003	-2.2127973E-003	0	3.9009457E-005
1.745412955907159E+003	9.4032055E-003	-2.2187827E-003	0	-3.7334015E-005
1.755412955654538E+003	9.3650287E-003	-2.1647851E-003	0	1.5352466E-004
1.765412955401916E+003	9.4032055E-003	-2.1946495E-003	0	9.6267060E-005
1.775412955149295E+003	9.3077635E-003	-2.1432627E-003	0	7.7181190E-005
1.785412954896674E+003	9.4032055E-003	-2.1573990E-003	0	5.8095327E-005
1.795412954644053E+003	9.3459403E-003	-2.1190657E-003	0	1.9923591E-005
1.805412954391431E+003	9.3650287E-003	-2.1519864E-003	0	7.7181190E-005
1.815412954138810E+003	9.3268519E-003	-2.0853172E-003	0	9.6267060E-005
1.825412953886189E+003	9.3650287E-003	-2.0985620E-003	0	1.7261053E-004
1.835412953633568E+003	9.3841171E-003	-2.0793318E-003	0	2.1078227E-004
1.845412953380946E+003	9.3841171E-003	-2.0654502E-003	0	1.5352466E-004
1.855412953128325E+003	9.4222939E-003	-2.0552620E-003	0	3.9009457E-005
1.860052753011114E+003	9.4604697E-003	-2.0376234E-003	0	5.8095327E-005