time/s	Ewe/V	I/mA	error	
6.005299848293362E+001	3.0612714E+000	-2.5020160E-002	0
6.017319847989711E+001	9.3462700E-003	-1.5422043E+001	0
6.017359847988700E+001	9.4226198E-003	-1.5347549E+001	0
6.017399847987690E+001	9.3462700E-003	-1.5283242E+001	0
6.017439847986680E+001	9.4035324E-003	-1.5204929E+001	0
6.017479847985669E+001	9.3080960E-003	-1.5129163E+001	0
6.017519847984659E+001	9.3653575E-003	-1.5066131E+001	0
6.017559847983648E+001	9.4035324E-003	-1.4993547E+001	0
6.017599847982638E+001	9.3844449E-003	-1.4922874E+001	0
6.017639847981627E+001	9.3271835E-003	-1.4849019E+001	0
6.017679847980617E+001	9.5371427E-003	-1.4777709E+001	0
6.017719847979606E+001	9.4226198E-003	-1.4705763E+001	0
6.017759847978596E+001	9.3844449E-003	-1.4640183E+001	0
6.017799847977585E+001	9.2890086E-003	-1.4572695E+001	0
6.017839847976575E+001	9.4035324E-003	-1.4502022E+001	0
6.017879847975564E+001	9.4798813E-003	-1.4431986E+001	0
6.017919847974554E+001	9.4417064E-003	-1.4365769E+001	0
6.017959847973543E+001	9.3271835E-003	-1.4297007E+001	0
6.017999847972533E+001	9.3844449E-003	-1.4218057E+001	0
6.018039847971522E+001	9.4035324E-003	-1.4156935E+001	0
6.018079847970512E+001	9.2890086E-003	-1.4091991E+001	0
6.018119847969501E+001	9.3462700E-003	-1.4028959E+001	0
6.018159847968491E+001	9.3653575E-003	-1.3965290E+001	0
6.018199847967480E+001	9.3271835E-003	-1.3899712E+001	0
6.018239847966470E+001	9.3653575E-003	-1.3832859E+001	0
6.018279847965459E+001	9.4607938E-003	-1.3762186E+001	0
6.018319847964449E+001	9.4035324E-003	-1.3703609E+001	0
6.018359847963438E+001	9.4035324E-003	-1.3636121E+001	0
6.018399847962428E+001	9.3844449E-003	-1.3574362E+001	0
6.018439847961417E+001	9.3653575E-003	-1.3504326E+001	0
6.018479847960407E+001	9.4607938E-003	-1.3453390E+001	0
6.018519847959396E+001	9.3844449E-003	-1.3386538E+001	0
6.018559847958386E+001	9.3462700E-003	-1.3325415E+001	0
6.018599847957375E+001	9.2890086E-003	-1.3261745E+001	0
6.018639847956365E+001	9.4226198E-003	-1.3194892E+001	0
6.018679847955354E+001	9.4607938E-003	-1.3140137E+001	0
6.018719847954344E+001	9.4417064E-003	-1.3077104E+001	0
6.018759847953334E+001	9.3080960E-003	-1.3022348E+001	0
6.018799847952323E+001	9.5371427E-003	-1.2961864E+001	0
6.018839847951313E+001	9.3844449E-003	-1.2891826E+001	0
6.018879847950302E+001	9.3271835E-003	-1.2836433E+001	0
6.018919847949292E+001	9.4607938E-003	-1.2781679E+001	0
6.018959847948281E+001	9.3271835E-003	-1.2714827E+001	0
6.018999847947271E+001	9.4417064E-003	-1.2654977E+001	0
6.019039847946260E+001	9.4226198E-003	-1.2604041E+001	0
6.019079847945250E+001	9.3462700E-003	-1.2542282E+001	0
6.019139847943734E+001	9.4417064E-003	-1.2455693E+001	0
6.019199847942218E+001	9.4035324E-003	-1.2382474E+001	0
6.019239847941208E+001	9.4226198E-003	-1.2316894E+001	0
6.019279847940197E+001	9.3844449E-003	-1.2260228E+001	0
6.019319847939187E+001	9.3080960E-003	-1.2206746E+001	0
6.019359847938176E+001	9.4417064E-003	-1.2153264E+001	0
6.019399847937166E+001	9.3080960E-003	-1.2095325E+001	0
6.019439847936155E+001	9.4798813E-003	-1.2043753E+001	0
6.019479847935145E+001	9.3462700E-003	-1.1988360E+001	0
6.019519847934134E+001	9.4035324E-003	-1.1936789E+001	0
6.019559847933124E+001	9.4798813E-003	-1.1882669E+001	0
6.019599847932113E+001	9.3844449E-003	-1.1830461E+001	0
6.019639847931103E+001	9.4226198E-003	-1.1769976E+001	0
6.019679847930092E+001	9.3844449E-003	-1.1710126E+001	0
6.019739847928577E+001	9.3271835E-003	-1.1642000E+001	0
6.019779847927566E+001	9.4035324E-003	-1.1591702E+001	0
6.019819847926556E+001	9.4798813E-003	-1.1540766E+001	0
6.019859847925545E+001	9.3462700E-003	-1.1480917E+001	0
6.019919847924029E+001	9.4607938E-003	-1.1412790E+001	0
6.019959847923019E+001	9.4417064E-003	-1.1355489E+001	0
6.019999847922008E+001	9.3844449E-003	-1.1305190E+001	0
6.020059847920493E+001	9.3271835E-003	-1.1228149E+001	0
6.020119847918977E+001	9.3462700E-003	-1.1168937E+001	0
6.020159847917967E+001	9.3653575E-003	-1.1109725E+001	0
6.020219847916451E+001	9.4035324E-003	-1.1039689E+001	0
6.020259847915440E+001	9.3462700E-003	-1.0986844E+001	0
6.020319847913925E+001	9.4226198E-003	-1.0911077E+001	0
6.020379847912409E+001	9.4989687E-003	-1.0842314E+001	0
6.020439847910893E+001	9.3653575E-003	-1.0769732E+001	0
6.020499847909377E+001	9.3844449E-003	-1.0708609E+001	0
6.020539847908367E+001	9.2508346E-003	-1.0656401E+001	0
6.020599847906851E+001	9.4798813E-003	-1.0581907E+001	0
6.020659847905335E+001	9.3080960E-003	-1.0516328E+001	0
6.020719847903820E+001	9.4607938E-003	-1.0455842E+001	0
6.020779847902304E+001	9.3653575E-003	-1.0383895E+001	0
6.020839847900788E+001	9.4417064E-003	-1.0315770E+001	0
6.020899847899273E+001	9.3462700E-003	-1.0256557E+001	0
6.020959847897757E+001	9.4417064E-003	-1.0185247E+001	0
6.021019847896241E+001	9.3844449E-003	-1.0122852E+001	0
6.021079847894725E+001	9.3653575E-003	-1.0057273E+001	0
6.021139847893210E+001	9.3271835E-003	-9.9885101E+000	0
6.021199847891694E+001	9.2890086E-003	-9.9248400E+000	0
6.021259847890178E+001	9.4035324E-003	-9.8643541E+000	0
6.021319847888662E+001	9.4226198E-003	-9.8076897E+000	0
6.021379847887147E+001	9.4607938E-003	-9.7478399E+000	0
6.021439847885631E+001	9.4607938E-003	-9.6822596E+000	0
6.021499847884115E+001	9.3653575E-003	-9.6217747E+000	0
6.021559847882600E+001	9.3653575E-003	-9.5632000E+000	0
6.021619847881084E+001	9.4226198E-003	-9.5008030E+000	0
6.021679847879568E+001	9.3653575E-003	-9.4339504E+000	0
6.021759847877547E+001	9.4226198E-003	-9.3670979E+000	0
6.021819847876031E+001	9.3271835E-003	-9.3085222E+000	0
6.021879847874516E+001	9.3462700E-003	-9.2550402E+000	0
6.021939847873000E+001	9.4226198E-003	-9.1977377E+000	0
6.021999847871484E+001	9.4607938E-003	-9.1353416E+000	0
6.022079847869463E+001	9.3271835E-003	-9.0710354E+000	0
6.022139847867948E+001	9.4035324E-003	-9.0080032E+000	0
6.022219847865927E+001	9.4607938E-003	-8.9411507E+000	0
6.022299847863906E+001	9.3080960E-003	-8.8641109E+000	0
6.022379847861885E+001	9.3271835E-003	-8.8036251E+000	0
6.022439847860369E+001	9.3653575E-003	-8.7475967E+000	0
6.022499847858853E+001	9.4035324E-003	-8.6922045E+000	0
6.022579847856832E+001	9.2699211E-003	-8.6272612E+000	0
6.022639847855316E+001	9.3080960E-003	-8.5744162E+000	0
6.022719847853296E+001	9.3844449E-003	-8.5113831E+000	0
6.022779847851780E+001	9.4417064E-003	-8.4604483E+000	0
6.022859847849759E+001	9.3080960E-003	-8.3993254E+000	0
6.022919847848243E+001	9.3271835E-003	-8.3471165E+000	0
6.022999847846222E+001	9.3653575E-003	-8.2859936E+000	0
6.023079847844201E+001	9.3462700E-003	-8.2267818E+000	0
6.023139847842685E+001	9.3462700E-003	-8.1745739E+000	0
6.023219847840664E+001	9.4035324E-003	-8.1147242E+000	0
6.023299847838643E+001	9.4417064E-003	-8.0510540E+000	0
6.023379847836623E+001	9.4035324E-003	-7.9969363E+000	0
6.023459847834602E+001	9.3844449E-003	-7.9396338E+000	0
6.023539847832581E+001	9.3844449E-003	-7.8791471E+000	0
6.023619847830560E+001	9.3271835E-003	-7.8173885E+000	0
6.023719847828033E+001	9.3844449E-003	-7.7543559E+000	0
6.023779847826518E+001	9.4607938E-003	-7.7015109E+000	0
6.023879847823991E+001	9.4226198E-003	-7.6403880E+000	0
6.023959847821970E+001	9.3844449E-003	-7.5862699E+000	0
6.024039847819950E+001	9.3844449E-003	-7.5289669E+000	0
6.024119847817929E+001	9.3653575E-003	-7.4691176E+000	0
6.024199847815908E+001	9.4035324E-003	-7.4181828E+000	0
6.024299847813381E+001	9.4798813E-003	-7.3570604E+000	0
6.024379847811360E+001	9.4035324E-003	-7.3061247E+000	0
6.024479847808834E+001	9.3653575E-003	-7.2411819E+000	0
6.024579847806308E+001	9.4035324E-003	-7.1864266E+000	0
6.024659847804287E+001	9.3844449E-003	-7.1323075E+000	0
6.024759847801761E+001	9.4607938E-003	-7.0737324E+000	0
6.024859847799235E+001	9.3844449E-003	-7.0081520E+000	0
6.024959847796708E+001	9.3653575E-003	-6.9533973E+000	0
6.025059847794182E+001	9.4417064E-003	-6.8967314E+000	0
6.025159847791656E+001	9.3462700E-003	-6.8349729E+000	0
6.025279847788624E+001	9.4607938E-003	-6.7732129E+000	0
6.025379847786098E+001	9.4417064E-003	-6.7197309E+000	0
6.025499847783067E+001	9.4226198E-003	-6.6611557E+000	0
6.025599847780541E+001	9.3462700E-003	-6.5981231E+000	0
6.025719847777509E+001	9.4607938E-003	-6.5370007E+000	0
6.025819847774983E+001	9.4798813E-003	-6.4784245E+000	0
6.025939847771951E+001	9.3462700E-003	-6.4230323E+000	0
6.026059847768920E+001	9.3653575E-003	-6.3625460E+000	0
6.026179847765889E+001	9.4035324E-003	-6.3103375E+000	0
6.026299847762857E+001	9.4035324E-003	-6.2492156E+000	0
6.026419847759826E+001	9.4035324E-003	-6.1938233E+000	0
6.026539847756794E+001	9.4035324E-003	-6.1403413E+000	0
6.026659847753763E+001	9.4798813E-003	-6.0766721E+000	0
6.026819847749721E+001	9.3271835E-003	-6.0110927E+000	0
6.026939847746689E+001	9.4607938E-003	-5.9556999E+000	0
6.027059847743658E+001	9.4417064E-003	-5.9015818E+000	0
6.027199847740121E+001	9.4226198E-003	-5.8410959E+000	0
6.027339847736584E+001	9.4989687E-003	-5.7857032E+000	0
6.027459847733553E+001	9.4417064E-003	-5.7354050E+000	0
6.027599847730016E+001	9.2890086E-003	-5.6819229E+000	0
6.027739847726480E+001	9.3462700E-003	-5.6271667E+000	0
6.027859847723448E+001	9.4035324E-003	-5.5743217E+000	0
6.028019847719406E+001	9.4798813E-003	-5.5157461E+000	0
6.028159847715870E+001	9.3080960E-003	-5.4654474E+000	0
6.028299847712333E+001	9.3844449E-003	-5.4113283E+000	0
6.028479847707786E+001	9.4035324E-003	-5.3463860E+000	0
6.028639847703744E+001	9.4226198E-003	-5.2941771E+000	0
6.028799847699702E+001	9.3462700E-003	-5.2336912E+000	0
6.028979847695155E+001	9.3844449E-003	-5.1751156E+000	0
6.029159847690607E+001	9.3462700E-003	-5.1159029E+000	0
6.029339847686060E+001	9.4417064E-003	-5.0611477E+000	0
6.029499847682018E+001	9.3653575E-003	-5.0070286E+000	0
6.029679847677471E+001	9.3844449E-003	-4.9554563E+000	0
6.029839847673429E+001	9.3271835E-003	-4.9045215E+000	0
6.030039847668377E+001	9.4417064E-003	-4.8465819E+000	0
6.030239847663324E+001	9.4798813E-003	-4.7860966E+000	0
6.030439847658272E+001	9.3844449E-003	-4.7313404E+000	0
6.030639847653219E+001	9.4226198E-003	-4.6740384E+000	0
6.030859847647662E+001	9.3653575E-003	-4.6135526E+000	0
6.031079847642104E+001	9.3653575E-003	-4.5632539E+000	0
6.031259847637557E+001	9.4226198E-003	-4.5097718E+000	0
6.031479847631999E+001	9.4035324E-003	-4.4581995E+000	0
6.031699847626442E+001	9.4226198E-003	-4.4021707E+000	0
6.031939847620379E+001	9.3844449E-003	-4.3480515E+000	0
6.032139847615326E+001	9.4989687E-003	-4.2964797E+000	0
6.032399847608758E+001	9.3844449E-003	-4.2410874E+000	0
6.032599847603706E+001	9.3462700E-003	-4.1888785E+000	0
6.032859847597138E+001	9.4417064E-003	-4.1341233E+000	0
6.033139847590064E+001	9.3653575E-003	-4.0800042E+000	0
6.033399847583496E+001	9.3080960E-003	-4.0271592E+000	0
6.033659847576928E+001	9.3844449E-003	-3.9724035E+000	0
6.033919847570360E+001	9.4607938E-003	-3.9214680E+000	0
6.034199847563286E+001	9.3271835E-003	-3.8686223E+000	0
6.034519847555202E+001	9.3653575E-003	-3.8125937E+000	0
6.034819847547624E+001	9.4226198E-003	-3.7591116E+000	0
6.035139847539540E+001	9.4035324E-003	-3.7069030E+000	0
6.035439847531961E+001	9.4035324E-003	-3.6566038E+000	0
6.035739847524383E+001	9.4798813E-003	-3.6037583E+000	0
6.036059847516299E+001	9.4607938E-003	-3.5534596E+000	0
6.036419847507204E+001	9.4798813E-003	-3.4993412E+000	0
6.036779847498110E+001	9.3844449E-003	-3.4458587E+000	0
6.037139847489016E+001	9.4226198E-003	-3.3942866E+000	0
6.040339847408177E+001	9.3080960E-003	-3.0162001E+000	0
6.040819847396051E+001	9.2699211E-003	-2.9650466E+000	0
6.041319847383420E+001	9.4417064E-003	-2.9141481E+000	0
6.041839847370284E+001	9.3653575E-003	-2.8640127E+000	0
6.042379847356642E+001	9.4417064E-003	-2.8132412E+000	0
6.042939847342495E+001	9.3844449E-003	-2.7625337E+000	0
6.043539847327338E+001	9.3271835E-003	-2.7112532E+000	0
6.044159847311676E+001	9.2890086E-003	-2.6599729E+000	0
6.044799847295508E+001	9.3653575E-003	-2.6088834E+000	0
6.045459847278835E+001	9.3462700E-003	-2.5588753E+000	0
6.046159847261151E+001	9.3080960E-003	-2.5084221E+000	0
6.046899847242457E+001	9.4417064E-003	-2.4565692E+000	0
6.047659847223258E+001	9.3844449E-003	-2.4063702E+000	0
6.048479847202543E+001	9.3271835E-003	-2.3545806E+000	0
6.049339847180818E+001	9.4798813E-003	-2.3036184E+000	0
6.050239847158082E+001	9.3653575E-003	-2.2528470E+000	0
6.051179847134335E+001	9.4226198E-003	-2.2018211E+000	0
6.052159847109579E+001	9.3080960E-003	-2.1511133E+000	0
6.053219847082801E+001	9.3844449E-003	-2.1005328E+000	0
6.054299847055518E+001	9.4798813E-003	-2.0503337E+000	0
6.055479847025708E+001	9.3462700E-003	-1.9999442E+000	0
6.056699846994889E+001	9.4607938E-003	-1.9498088E+000	0
6.058019846961543E+001	9.3844449E-003	-1.8991011E+000	0
6.059419846926176E+001	9.3844449E-003	-1.8486477E+000	0
6.060919846888282E+001	9.3844449E-003	-1.7983854E+000	0
6.062499846848368E+001	9.2890086E-003	-1.7480592E+000	0
6.064219846804917E+001	9.3462700E-003	-1.6976696E+000	0
6.066039846758940E+001	9.3462700E-003	-1.6475345E+000	0
6.068039846708416E+001	9.3653575E-003	-1.5969540E+000	0
6.070199846653850E+001	9.3462700E-003	-1.5463732E+000	0
6.072499846595747E+001	9.4417064E-003	-1.4961109E+000	0
6.074979846533097E+001	9.3844449E-003	-1.4461030E+000	0
6.077779846462363E+001	9.3080960E-003	-1.3954587E+000	0
6.080699846388598E+001	9.3271835E-003	-1.3453872E+000	0
6.083959846306243E+001	9.3271835E-003	-1.2953156E+000	0
6.087639846213278E+001	9.3271835E-003	-1.2452441E+000	0
6.091599846113240E+001	9.4035324E-003	-1.1946635E+000	0
6.096059846000571E+001	9.3653575E-003	-1.1444647E+000	0
6.101019845875271E+001	9.4226198E-003	-1.0936297E+000	0
6.106519845736329E+001	9.2699211E-003	-1.0434945E+000	0
6.112779845578189E+001	9.4035324E-003	-9.9234122E-001	0
6.119919845397817E+001	9.3653575E-003	-9.4201517E-001	0
6.127979845194204E+001	9.4607938E-003	-8.9175272E-001	0
6.137319844958256E+001	9.3271835E-003	-8.4168118E-001	0
6.148099844685930E+001	9.3462700E-003	-7.9135513E-001	0
6.160659844368638E+001	9.3271835E-003	-7.4122000E-001	0
6.175579843991727E+001	9.3462700E-003	-6.9070303E-001	0
6.193379843542061E+001	9.4035324E-003	-6.4063144E-001	0
6.215479842983768E+001	9.3844449E-003	-5.9062356E-001	0
6.242679842296639E+001	9.4226198E-003	-5.4023385E-001	0
6.277859841407917E+001	9.4607938E-003	-4.8971686E-001	0
6.326039840190788E+001	9.4798813E-003	-4.3964276E-001	0
6.388459838613926E+001	9.3080960E-003	-3.8956252E-001	0
6.477199836372165E+001	9.4035324E-003	-3.3953318E-001	0
6.505279835662805E+001	9.3462700E-003	-3.2787389E-001	0
6.505339835659834E+001	9.3653575E-003	-3.2713562E-001	0
6.653639831913461E+001	9.4226198E-003	-2.7710634E-001	0
6.895899825793458E+001	9.4798813E-003	-2.2701974E-001	0
7.346599814407818E+001	9.3462700E-003	-1.7693949E-001	0
8.346599789145694E+001	9.3653575E-003	-1.2857124E-001	0
9.346599763883569E+001	9.2890086E-003	-1.0520174E-001	0
1.034659973862144E+002	9.2508346E-003	-9.0309411E-002	0
1.134659971335932E+002	9.3271835E-003	-7.9903871E-002	0
1.234659968809719E+002	9.3653575E-003	-7.1573086E-002	0
1.334659966283507E+002	9.4417064E-003	-6.4884268E-002	0
1.434659963757294E+002	9.4226198E-003	-5.9321910E-002	0
1.534659961231082E+002	9.3462700E-003	-5.4873306E-002	0
1.634659958704870E+002	9.4035324E-003	-5.0857469E-002	0
1.734659956178657E+002	9.3653575E-003	-4.7738988E-002	0
1.834659953652445E+002	9.3653575E-003	-4.5093630E-002	0
1.934659951126232E+002	9.4607938E-003	-4.2508513E-002	0
2.034659948600020E+002	9.4226198E-003	-4.0403768E-002	0
2.134659946073807E+002	9.2890086E-003	-3.8539533E-002	0
2.234659943547595E+002	9.2508346E-003	-3.6815271E-002	0
2.334659941021382E+002	9.3462700E-003	-3.5363328E-002	0
2.434659938495170E+002	9.2890086E-003	-3.3981375E-002	0
2.534659935968957E+002	9.3462700E-003	-3.2614693E-002	0
2.634659933442745E+002	9.3462700E-003	-3.1479605E-002	0
2.734659930916532E+002	9.3271835E-003	-3.0372515E-002	0
2.834659928390320E+002	9.4035324E-003	-2.9372957E-002	0
2.934659925864107E+002	9.3462700E-003	-2.8414113E-002	0
3.034659923337895E+002	9.3844449E-003	-2.7608609E-002	0
3.134659920811682E+002	9.3271835E-003	-2.6858460E-002	0
3.234659918285470E+002	9.3271835E-003	-2.6047232E-002	0
3.334659915759257E+002	9.3653575E-003	-2.5279904E-002	0
3.434659913233045E+002	9.4226198E-003	-2.4669096E-002	0
3.534659910706832E+002	9.3080960E-003	-2.4043655E-002	0
3.634659908180620E+002	9.3653575E-003	-2.3420122E-002	0
3.734659905654407E+002	9.3462700E-003	-2.2847489E-002	0
3.834659903128195E+002	9.3271835E-003	-2.2317484E-002	0
3.934659900601982E+002	9.3844449E-003	-2.1666592E-002	0
4.034659898075770E+002	9.3844449E-003	-2.1171583E-002	0
4.134659895549557E+002	9.3653575E-003	-2.0798735E-002	0
4.234659893023345E+002	9.3271835E-003	-2.0374350E-002	0
4.334659890497132E+002	9.3462700E-003	-1.9925153E-002	0
4.399153888867877E+002	9.3844449E-003	-1.9603206E-002	0
4.399155888867826E+002	9.3462700E-003	-1.9734275E-002	0