time/s	Ewe/V	I/mA	error	
8.199239792868320E+001	-4.8578840E-002	-1.9450577E+000	0
8.199259792867815E+001	-7.5676784E-002	-1.9594371E+000	0
8.199279792867310E+001	-8.4745370E-002	-1.9595389E+000	0
8.199299792866805E+001	-8.9918159E-002	-1.9595197E+000	0
8.199319792866299E+001	-9.4270177E-002	-1.9595007E+000	0
8.199339792865794E+001	-9.8431312E-002	-1.9595962E+000	0
8.199359792865289E+001	-1.0226796E-001	-1.9596407E+000	0
8.199379792864784E+001	-1.0608552E-001	-1.9595580E+000	0
8.199399792864278E+001	-1.0954041E-001	-1.9595453E+000	0
8.199419792863773E+001	-1.1303347E-001	-1.9596598E+000	0
8.199439792863268E+001	-1.1637384E-001	-1.9595898E+000	0
8.199459792862763E+001	-1.1959968E-001	-1.9595708E+000	0
8.199479792862257E+001	-1.2267281E-001	-1.9595643E+000	0
8.199499792861752E+001	-1.2582229E-001	-1.9595643E+000	0
8.199519792861247E+001	-1.2887634E-001	-1.9595580E+000	0
8.199539792860742E+001	-1.3166316E-001	-1.9595898E+000	0
8.199559792860236E+001	-1.3452633E-001	-1.9595453E+000	0
8.199579792859731E+001	-1.3725588E-001	-1.9595708E+000	0
8.199599792859226E+001	-1.4009996E-001	-1.9596598E+000	0
8.199619792858721E+001	-1.4275315E-001	-1.9595197E+000	0
8.199639792858216E+001	-1.4533001E-001	-1.9595326E+000	0
8.199659792857710E+001	-1.4790687E-001	-1.9595071E+000	0
8.199679792857205E+001	-1.5038827E-001	-1.9595834E+000	0
8.199699792856700E+001	-1.5300331E-001	-1.9595834E+000	0
8.199719792856195E+001	-1.5550381E-001	-1.9595517E+000	0
8.199739792855689E+001	-1.5766072E-001	-1.9595580E+000	0
8.199759792855184E+001	-1.6008487E-001	-1.9595580E+000	0
8.199779792854679E+001	-1.6229905E-001	-1.9595898E+000	0
8.199799792854174E+001	-1.6468503E-001	-1.9595708E+000	0
8.199819792853668E+001	-1.6674651E-001	-1.9596217E+000	0
8.199839792853163E+001	-1.6899887E-001	-1.9595453E+000	0
8.199859792852658E+001	-1.7090765E-001	-1.9596152E+000	0
8.199879792852153E+001	-1.7319819E-001	-1.9595962E+000	0
8.199899792851647E+001	-1.7525966E-001	-1.9595898E+000	0
8.199919792851142E+001	-1.7720662E-001	-1.9596089E+000	0
8.199939792850637E+001	-1.7940173E-001	-1.9595771E+000	0
8.199959792850132E+001	-1.8111962E-001	-1.9596280E+000	0
8.199979792849626E+001	-1.8304749E-001	-1.9596089E+000	0
8.199999792849121E+001	-1.8489900E-001	-1.9595453E+000	0
8.200019792848616E+001	-1.8678869E-001	-1.9596089E+000	0
8.200039792848111E+001	-1.8883109E-001	-1.9595708E+000	0
8.200059792847605E+001	-1.9043446E-001	-1.9595834E+000	0
8.200079792847100E+001	-1.9215237E-001	-1.9596280E+000	0
8.200099792846595E+001	-1.9381300E-001	-1.9595898E+000	0
8.200119792846090E+001	-1.9566451E-001	-1.9596343E+000	0
8.200139792845584E+001	-1.9717245E-001	-1.9595898E+000	0
8.200159792845079E+001	-1.9896671E-001	-1.9596217E+000	0
8.200179792844574E+001	-2.0045555E-001	-1.9595453E+000	0
8.200199792844069E+001	-2.0209710E-001	-1.9596152E+000	0
8.200219792843563E+001	-2.0371957E-001	-1.9595453E+000	0
8.200239792843058E+001	-2.0536111E-001	-1.9596152E+000	0
8.200259792842553E+001	-2.0673543E-001	-1.9596089E+000	0
8.200279792842048E+001	-2.0828155E-001	-1.9595708E+000	0
8.200299792841543E+001	-2.0965587E-001	-1.9595771E+000	0
8.200319792841037E+001	-2.1116380E-001	-1.9595962E+000	0
8.200339792840532E+001	-2.1263357E-001	-1.9595834E+000	0
8.200359792840027E+001	-2.1391244E-001	-1.9595898E+000	0
8.200379792839522E+001	-2.1521041E-001	-1.9596280E+000	0
8.200399792839016E+001	-2.1673743E-001	-1.9595708E+000	0
8.200419792838511E+001	-2.1803541E-001	-1.9596025E+000	0
8.200439792838006E+001	-2.1933338E-001	-1.9596152E+000	0
8.200459792837501E+001	-2.2070770E-001	-1.9595771E+000	0
8.200479792836995E+001	-2.2196749E-001	-1.9596089E+000	0
8.200499792836490E+001	-2.2320820E-001	-1.9595898E+000	0
8.200519792835985E+001	-2.2446799E-001	-1.9596152E+000	0
8.200539792835480E+001	-2.2578505E-001	-1.9596280E+000	0
8.200559792834974E+001	-2.2679670E-001	-1.9595708E+000	0
8.200579792834469E+001	-2.2813284E-001	-1.9596598E+000	0
8.200599792833964E+001	-2.2927812E-001	-1.9595580E+000	0
8.200619792833459E+001	-2.3046155E-001	-1.9595898E+000	0
8.200639792832953E+001	-2.3156865E-001	-1.9596217E+000	0
8.200659792832448E+001	-2.3261848E-001	-1.9595708E+000	0
8.200679792831943E+001	-2.3387827E-001	-1.9596217E+000	0
8.200719792830932E+001	-2.3593976E-001	-1.9595898E+000	0
8.200739792830427E+001	-2.3697050E-001	-1.9595580E+000	0
8.200759792829922E+001	-2.3815393E-001	-1.9596152E+000	0
8.200799792828911E+001	-2.4021542E-001	-1.9595962E+000	0
8.200839792827901E+001	-2.4208602E-001	-1.9596025E+000	0
8.200859792827396E+001	-2.4317403E-001	-1.9596089E+000	0
8.200879792826890E+001	-2.4418569E-001	-1.9596661E+000	0
8.200899792826385E+001	-2.4519734E-001	-1.9595643E+000	0
8.200939792825375E+001	-2.4704885E-001	-1.9596280E+000	0
8.200979792824364E+001	-2.4886219E-001	-1.9595834E+000	0
8.201019792823354E+001	-2.5069460E-001	-1.9596217E+000	0
8.201059792822343E+001	-2.5224072E-001	-1.9596534E+000	0
8.201099792821333E+001	-2.5401589E-001	-1.9596471E+000	0
8.201139792820322E+001	-2.5573379E-001	-1.9596407E+000	0
8.201179792819312E+001	-2.5737533E-001	-1.9596152E+000	0
8.201219792818301E+001	-2.5890237E-001	-1.9596407E+000	0
8.201259792817291E+001	-2.6054391E-001	-1.9596025E+000	0
8.201299792816280E+001	-2.6191822E-001	-1.9595643E+000	0
8.201339792815270E+001	-2.6346433E-001	-1.9596598E+000	0
8.201379792814259E+001	-2.6489592E-001	-1.9595771E+000	0
8.201419792813249E+001	-2.6632750E-001	-1.9595962E+000	0
8.201459792812238E+001	-2.6775908E-001	-1.9595834E+000	0
8.201499792811228E+001	-2.6917160E-001	-1.9596534E+000	0
8.201539792810217E+001	-2.7046958E-001	-1.9595898E+000	0
8.201579792809207E+001	-2.7188206E-001	-1.9596152E+000	0
8.201619792808197E+001	-2.7316093E-001	-1.9596089E+000	0
8.201659792807186E+001	-2.7449709E-001	-1.9596280E+000	0
8.201699792806176E+001	-2.7568054E-001	-1.9595389E+000	0
8.201739792805165E+001	-2.7686396E-001	-1.9596280E+000	0
8.201779792804155E+001	-2.7810469E-001	-1.9595708E+000	0
8.201819792803144E+001	-2.7940264E-001	-1.9596598E+000	0
8.201859792802134E+001	-2.8047156E-001	-1.9596089E+000	0
8.201899792801123E+001	-2.8152138E-001	-1.9595962E+000	0
8.201939792800113E+001	-2.8272393E-001	-1.9595708E+000	0
8.201979792799102E+001	-2.8386918E-001	-1.9595643E+000	0
8.202039792797586E+001	-2.8547257E-001	-1.9596280E+000	0
8.202099792796071E+001	-2.8696141E-001	-1.9595898E+000	0
8.202159792794555E+001	-2.8848845E-001	-1.9596089E+000	0
8.202219792793039E+001	-2.8992003E-001	-1.9595517E+000	0
8.202279792791524E+001	-2.9137069E-001	-1.9595962E+000	0
8.202319792790513E+001	-2.9240143E-001	-1.9596152E+000	0
8.202379792788997E+001	-2.9389027E-001	-1.9595834E+000	0
8.202439792787482E+001	-2.9518825E-001	-1.9595326E+000	0
8.202499792785966E+001	-2.9650530E-001	-1.9596407E+000	0
8.202559792784450E+001	-2.9789871E-001	-1.9595898E+000	0
8.202619792782934E+001	-2.9902491E-001	-1.9596725E+000	0
8.202679792781419E+001	-3.0036104E-001	-1.9595326E+000	0
8.202739792779903E+001	-3.0148721E-001	-1.9596343E+000	0
8.202799792778387E+001	-3.0270883E-001	-1.9596407E+000	0
8.202859792776871E+001	-3.0391136E-001	-1.9596598E+000	0
8.202919792775356E+001	-3.0492303E-001	-1.9596152E+000	0
8.202979792773840E+001	-3.0624008E-001	-1.9596725E+000	0
8.203039792772324E+001	-3.0736625E-001	-1.9595643E+000	0
8.203119792770303E+001	-3.0872148E-001	-1.9595771E+000	0
8.203179792768788E+001	-3.0980951E-001	-1.9595962E+000	0
8.203259792766767E+001	-3.1114563E-001	-1.9595962E+000	0
8.203319792765251E+001	-3.1217638E-001	-1.9595771E+000	0
8.203379792763735E+001	-3.1318805E-001	-1.9596152E+000	0
8.203459792761714E+001	-3.1456235E-001	-1.9596343E+000	0
8.203539792759693E+001	-3.1584123E-001	-1.9595453E+000	0
8.203619792757672E+001	-3.1706285E-001	-1.9595898E+000	0
8.203699792755651E+001	-3.1832266E-001	-1.9596025E+000	0
8.203779792753630E+001	-3.1954429E-001	-1.9595771E+000	0
8.203859792751609E+001	-3.2065135E-001	-1.9596089E+000	0
8.203939792749588E+001	-3.2181573E-001	-1.9595834E+000	0
8.204019792747567E+001	-3.2282737E-001	-1.9595771E+000	0
8.204099792745546E+001	-3.2391536E-001	-1.9595580E+000	0
8.204179792743525E+001	-3.2496521E-001	-1.9596025E+000	0
8.204259792741505E+001	-3.2607231E-001	-1.9596025E+000	0
8.204339792739484E+001	-3.2721758E-001	-1.9596152E+000	0
8.204439792736957E+001	-3.2836282E-001	-1.9595834E+000	0
8.204539792734431E+001	-3.2956538E-001	-1.9595708E+000	0
8.204619792732410E+001	-3.3067244E-001	-1.9596407E+000	0
8.204719792729884E+001	-3.3185589E-001	-1.9595708E+000	0
8.204819792727358E+001	-3.3302024E-001	-1.9595834E+000	0
8.204919792724832E+001	-3.3420369E-001	-1.9596089E+000	0
8.205019792722305E+001	-3.3527261E-001	-1.9596343E+000	0
8.205119792719779E+001	-3.3636060E-001	-1.9595898E+000	0
8.205239792716748E+001	-3.3763951E-001	-1.9595643E+000	0
8.205339792714221E+001	-3.3865115E-001	-1.9596407E+000	0
8.205439792711695E+001	-3.3972007E-001	-1.9595643E+000	0
8.205559792708664E+001	-3.4084624E-001	-1.9595834E+000	0
8.205659792706138E+001	-3.4185791E-001	-1.9596471E+000	0
8.205779792703106E+001	-3.4302226E-001	-1.9595580E+000	0
8.205899792700075E+001	-3.4412935E-001	-1.9596152E+000	0
8.206019792697043E+001	-3.4531280E-001	-1.9596471E+000	0
8.206139792694012E+001	-3.4641987E-001	-1.9595708E+000	0
8.206259792690980E+001	-3.4743154E-001	-1.9596152E+000	0
8.206399792687444E+001	-3.4865317E-001	-1.9595962E+000	0
8.206539792683907E+001	-3.4972206E-001	-1.9595708E+000	0
8.206679792680370E+001	-3.5092461E-001	-1.9596471E+000	0
8.206839792676328E+001	-3.5222256E-001	-1.9596343E+000	0
8.206959792673297E+001	-3.5323423E-001	-1.9595453E+000	0
8.207119792669255E+001	-3.5437950E-001	-1.9596152E+000	0
8.207279792665213E+001	-3.5542932E-001	-1.9595834E+000	0
8.207419792661676E+001	-3.5646006E-001	-1.9595898E+000	0
8.207579792657634E+001	-3.5750988E-001	-1.9596025E+000	0
8.207739792653592E+001	-3.5857880E-001	-1.9596025E+000	0
8.207919792649045E+001	-3.5970497E-001	-1.9595962E+000	0
8.208099792644498E+001	-3.6073571E-001	-1.9595898E+000	0
8.208319792638940E+001	-3.6197644E-001	-1.9595962E+000	0
8.208559792632877E+001	-3.6302626E-001	-1.9595771E+000	0
8.208759792627825E+001	-3.6403790E-001	-1.9596217E+000	0
8.209019792621257E+001	-3.6514500E-001	-1.9596217E+000	0
8.209319792613678E+001	-3.6617574E-001	-1.9596025E+000	0
8.209579792607110E+001	-3.6718741E-001	-1.9596343E+000	0
8.209979792597005E+001	-3.6825630E-001	-1.9595517E+000	0
8.210479792584374E+001	-3.6934432E-001	-1.9595834E+000	0
8.211179792566691E+001	-3.7037507E-001	-1.9596915E+000	0
8.212379792536376E+001	-3.7138671E-001	-1.9596217E+000	0
8.217179792415118E+001	-3.7037507E-001	-1.9596025E+000	0
8.218479792382277E+001	-3.6930615E-001	-1.9596025E+000	0
8.219559792354994E+001	-3.6829448E-001	-1.9596280E+000	0
8.220599792328721E+001	-3.6726376E-001	-1.9595834E+000	0
8.221959792294365E+001	-3.6625209E-001	-1.9596343E+000	0
8.223559792253945E+001	-3.6518317E-001	-1.9596089E+000	0
8.226419792181696E+001	-3.6413336E-001	-1.9595771E+000	0
8.254059791483451E+001	-3.6516410E-001	-1.9596280E+000	0
8.270259791074204E+001	-3.6617574E-001	-1.9596025E+000	0
8.394239787942206E+001	-3.6516410E-001	-1.9595962E+000	0
8.432279786981235E+001	-3.6415243E-001	-1.9596280E+000	0
8.470379786018748E+001	-3.6312169E-001	-1.9595771E+000	0
8.515179784887005E+001	-3.6211005E-001	-1.9596280E+000	0
8.587639783056511E+001	-3.6109838E-001	-1.9595898E+000	0
8.827119777006737E+001	-3.6216730E-001	-1.9596280E+000	0
8.893859775320743E+001	-3.6321715E-001	-1.9596343E+000	0
8.945459774017218E+001	-3.6422879E-001	-1.9596407E+000	0
8.992019772841013E+001	-3.6524045E-001	-1.9596089E+000	0
9.037859771682997E+001	-3.6627120E-001	-1.9596534E+000	0
9.076999770694238E+001	-3.6728284E-001	-1.9596280E+000	0
9.119259769626660E+001	-3.6829448E-001	-1.9596343E+000	0
9.157379768663668E+001	-3.6930615E-001	-1.9596534E+000	0
9.194379767728969E+001	-3.7035596E-001	-1.9596661E+000	0
9.234399766717979E+001	-3.7140581E-001	-1.9596152E+000	0
9.271299765785807E+001	-3.7243655E-001	-1.9596217E+000	0
9.308539764845045E+001	-3.7346727E-001	-1.9596089E+000	0
9.346299763891147E+001	-3.7447894E-001	-1.9596025E+000	0
9.385199762908451E+001	-3.7550968E-001	-1.9596280E+000	0
9.423379761943943E+001	-3.7654042E-001	-1.9596852E+000	0
9.459779761024402E+001	-3.7755206E-001	-1.9595898E+000	0
9.495719760116481E+001	-3.7856373E-001	-1.9596343E+000	0
9.535319759116101E+001	-3.7959448E-001	-1.9596471E+000	0
9.575899758090964E+001	-3.8060611E-001	-1.9596980E+000	0
9.615419757092604E+001	-3.8161775E-001	-1.9596152E+000	0
9.654839756096771E+001	-3.8262942E-001	-1.9596661E+000	0
9.699059754979680E+001	-3.8364106E-001	-1.9596725E+000	0
9.744579753829748E+001	-3.8469091E-001	-1.9596280E+000	0
9.791899752634345E+001	-3.8572165E-001	-1.9596343E+000	0
9.840699751401553E+001	-3.8673329E-001	-1.9596534E+000	0
9.886299750249600E+001	-3.8774496E-001	-1.9596217E+000	0
9.936779748974368E+001	-3.8879478E-001	-1.9596343E+000	0
9.990839747608698E+001	-3.8980642E-001	-1.9596534E+000	0
1.005153974607529E+002	-3.9081809E-001	-1.9596152E+000	0
1.010921974461817E+002	-3.9186791E-001	-1.9596598E+000	0
1.017257974301756E+002	-3.9287958E-001	-1.9596980E+000	0
1.024689974114008E+002	-3.9394850E-001	-1.9596407E+000	0
1.032899973906606E+002	-3.9496014E-001	-1.9596725E+000	0
1.042227973670961E+002	-3.9602906E-001	-1.9596343E+000	0
1.053657973382215E+002	-3.9705980E-001	-1.9596343E+000	0
1.064921973097662E+002	-3.9809054E-001	-1.9596280E+000	0
1.080121972713678E+002	-3.9910218E-001	-1.9596280E+000	0
1.102431972150080E+002	-4.0011385E-001	-1.9595898E+000	0
1.152431970886973E+002	-4.0066737E-001	-1.9596089E+000	0
1.198751969716832E+002	-3.9965573E-001	-1.9596407E+000	0
1.217755969236750E+002	-3.9864409E-001	-1.9596598E+000	0
1.234083968824270E+002	-3.9763242E-001	-1.9596217E+000	0
1.248619968457060E+002	-3.9662078E-001	-1.9596025E+000	0
1.260777968149923E+002	-3.9560911E-001	-1.9596025E+000	0
1.278763967695559E+002	-3.9459747E-001	-1.9596471E+000	0
1.291487967374123E+002	-3.9354762E-001	-1.9596280E+000	0
1.303777967063652E+002	-3.9253598E-001	-1.9596598E+000	0
1.315487966767832E+002	-3.9150524E-001	-1.9596089E+000	0
1.326187966497528E+002	-3.9045542E-001	-1.9596534E+000	0
1.337289966217068E+002	-3.8944376E-001	-1.9596407E+000	0
1.346799965976825E+002	-3.8843212E-001	-1.9595834E+000	0
1.356315965736430E+002	-3.8738227E-001	-1.9596534E+000	0
1.367021965465974E+002	-3.8637063E-001	-1.9596089E+000	0
1.378469965176773E+002	-3.8535899E-001	-1.9596471E+000	0
1.388553964922030E+002	-3.8432825E-001	-1.9596343E+000	0
1.398617964667792E+002	-3.8329750E-001	-1.9596343E+000	0
1.408553964416787E+002	-3.8228583E-001	-1.9596407E+000	0
1.418515964165126E+002	-3.8125509E-001	-1.9596471E+000	0
1.427831963929784E+002	-3.8024345E-001	-1.9596089E+000	0
1.438585963658115E+002	-3.7923178E-001	-1.9596471E+000	0
1.448775963400694E+002	-3.7820107E-001	-1.9596915E+000	0
1.459779963122710E+002	-3.7717032E-001	-1.9596534E+000	0
1.470021962863975E+002	-3.7615865E-001	-1.9595834E+000	0
1.478171962658089E+002	-3.7512791E-001	-1.9596152E+000	0
1.488399962399708E+002	-3.7409717E-001	-1.9595962E+000	0
1.500017962106213E+002	-3.7306643E-001	-1.9596152E+000	0
1.509971961854753E+002	-3.7205479E-001	-1.9595771E+000	0
1.520947961577476E+002	-3.7098587E-001	-1.9596915E+000	0
1.531513961310557E+002	-3.6993605E-001	-1.9596534E+000	0
1.542561961031461E+002	-3.6892438E-001	-1.9596725E+000	0
1.553759960748575E+002	-3.6791274E-001	-1.9596025E+000	0
1.563813960494590E+002	-3.6690107E-001	-1.9596407E+000	0
1.575223960206349E+002	-3.6585125E-001	-1.9596471E+000	0
1.590457959821506E+002	-3.6483961E-001	-1.9596534E+000	0
1.602783959510125E+002	-3.6382794E-001	-1.9596407E+000	0
1.612517959264223E+002	-3.6281630E-001	-1.9596343E+000	0
1.623081958997354E+002	-3.6176646E-001	-1.9596343E+000	0
1.635845958674909E+002	-3.6073571E-001	-1.9596598E+000	0
1.644957958444720E+002	-3.5970497E-001	-1.9596280E+000	0
1.654965958191897E+002	-3.5869333E-001	-1.9597297E+000	0
1.666435957902140E+002	-3.5766259E-001	-1.9596471E+000	0
1.678897957587324E+002	-3.5665095E-001	-1.9596471E+000	0
1.689365957322880E+002	-3.5563928E-001	-1.9596407E+000	0
1.700457957042672E+002	-3.5462764E-001	-1.9596217E+000	0
1.712677956733969E+002	-3.5361597E-001	-1.9596407E+000	0
1.721467956511915E+002	-3.5258523E-001	-1.9596661E+000	0
1.731109956268338E+002	-3.5157359E-001	-1.9596534E+000	0
1.741197956013493E+002	-3.5054284E-001	-1.9596725E+000	0
1.752085955738439E+002	-3.4953120E-001	-1.9596025E+000	0
1.763843955441407E+002	-3.4851953E-001	-1.9595771E+000	0
1.773411955199699E+002	-3.4750789E-001	-1.9596471E+000	0
1.783477954945411E+002	-3.4649622E-001	-1.9596852E+000	0
1.795725954636000E+002	-3.4548458E-001	-1.9595771E+000	0
1.806939954352711E+002	-3.4447291E-001	-1.9596598E+000	0
1.819255954041582E+002	-3.4346128E-001	-1.9596280E+000	0
1.830583953755413E+002	-3.4244964E-001	-1.9596280E+000	0
1.841215953486826E+002	-3.4138072E-001	-1.9596725E+000	0
1.853945953165239E+002	-3.4036905E-001	-1.9596534E+000	0
1.864987952886295E+002	-3.3935741E-001	-1.9596280E+000	0
1.874751952639635E+002	-3.3834574E-001	-1.9596025E+000	0
1.883917952408083E+002	-3.3731499E-001	-1.9595834E+000	0
1.893405952168396E+002	-3.3630335E-001	-1.9596407E+000	0
1.905157951871515E+002	-3.3523443E-001	-1.9596471E+000	0
1.916943951573776E+002	-3.3422279E-001	-1.9596089E+000	0
1.930487951231626E+002	-3.3321112E-001	-1.9596471E+000	0
1.939141951013007E+002	-3.3219948E-001	-1.9596789E+000	0
1.947269950807677E+002	-3.3114964E-001	-1.9595834E+000	0
1.957123950558744E+002	-3.3011889E-001	-1.9595962E+000	0
1.965877950337599E+002	-3.2910725E-001	-1.9595771E+000	0
1.974651950115949E+002	-3.2809561E-001	-1.9596534E+000	0
1.981887949933152E+002	-3.2708395E-001	-1.9595643E+000	0
1.989863949731662E+002	-3.2607231E-001	-1.9596598E+000	0
1.997875949529262E+002	-3.2506064E-001	-1.9596407E+000	0
2.007933949275175E+002	-3.2404900E-001	-1.9596471E+000	0
2.018173949016491E+002	-3.2303733E-001	-1.9596661E+000	0
2.024507948856481E+002	-3.2194933E-001	-1.9596915E+000	0
2.024509948856430E+002	-3.1946793E-001	-1.9596407E+000	0
2.024519948856178E+002	-3.1807452E-001	-1.9596280E+000	0
2.024603948854055E+002	-3.1704378E-001	-1.9596343E+000	0
2.024705948851479E+002	-3.1553584E-001	-1.9596089E+000	0
2.024761948850064E+002	-3.1437147E-001	-1.9596089E+000	0
2.024871948847285E+002	-3.1326440E-001	-1.9597044E+000	0
2.024873948847235E+002	-3.1112656E-001	-1.9596661E+000	0
2.024931948845770E+002	-3.0881694E-001	-1.9596217E+000	0
2.024933948845719E+002	-3.0578196E-001	-1.9596343E+000	0
2.024981948844506E+002	-3.0473214E-001	-1.9596217E+000	0
2.025165948839858E+002	-3.0181172E-001	-1.9595643E+000	0
2.025259948837484E+002	-2.9990295E-001	-1.9596598E+000	0
2.025267948837281E+002	-2.9875767E-001	-1.9596980E+000	0
2.025355948835058E+002	-2.9982659E-001	-1.9596407E+000	0
2.025437948832987E+002	-3.0085734E-001	-1.9596661E+000	0
2.025481948831875E+002	-3.0196440E-001	-1.9596852E+000	0
2.025535948830511E+002	-3.0047557E-001	-1.9596343E+000	0
2.025561948829854E+002	-2.9940665E-001	-1.9596471E+000	0
2.025653948827530E+002	-2.9837590E-001	-1.9595643E+000	0
2.025857948822377E+002	-2.9579905E-001	-1.9596598E+000	0
2.025859948822326E+002	-2.9476833E-001	-1.9596025E+000	0
2.025867948822124E+002	-2.9335582E-001	-1.9595962E+000	0
2.025869948822074E+002	-2.9163793E-001	-1.9596217E+000	0
2.025895948821417E+002	-2.9047358E-001	-1.9596980E+000	0
2.026027948818082E+002	-2.9150429E-001	-1.9596471E+000	0
2.026051948817476E+002	-2.9253504E-001	-1.9596471E+000	0
2.026057948817324E+002	-2.8982458E-001	-1.9596089E+000	0
2.026079948816769E+002	-2.8866023E-001	-1.9596407E+000	0
2.026097948816314E+002	-2.8764859E-001	-1.9596343E+000	0
2.026227948813030E+002	-2.8873658E-001	-1.9596725E+000	0
2.026327948810504E+002	-2.8999639E-001	-1.9596152E+000	0
2.026333948810352E+002	-2.9123709E-001	-1.9596152E+000	0
2.026339948810200E+002	-2.8883201E-001	-1.9596343E+000	0
2.026415948808281E+002	-2.8684688E-001	-1.9596598E+000	0
2.026453948807321E+002	-2.8493810E-001	-1.9596471E+000	0
2.026455948807270E+002	-2.8386918E-001	-1.9596534E+000	0
2.026627948802925E+002	-2.8499538E-001	-1.9596407E+000	0
2.026719948800601E+002	-2.8604519E-001	-1.9596152E+000	0
2.026789948798832E+002	-2.8724772E-001	-1.9596471E+000	0
2.026813948798226E+002	-2.8831664E-001	-1.9596661E+000	0
2.026825948797923E+002	-2.8617883E-001	-1.9596471E+000	0
2.026851948797266E+002	-2.8722864E-001	-1.9596025E+000	0
2.026869948796812E+002	-2.8824028E-001	-1.9596471E+000	0
2.026917948795599E+002	-2.8690416E-001	-1.9596915E+000	0
2.026977948794083E+002	-2.8799215E-001	-1.9596598E+000	0
2.026995948793628E+002	-2.8900382E-001	-1.9596407E+000	0
2.027019948793022E+002	-2.9001546E-001	-1.9596598E+000	0
2.027041948792466E+002	-2.9102710E-001	-1.9596471E+000	0
2.027051948792214E+002	-2.8982458E-001	-1.9596661E+000	0
2.027063948791911E+002	-2.8862205E-001	-1.9596471E+000	0
2.027097948791052E+002	-2.8747678E-001	-1.9595898E+000	0
2.027127948790294E+002	-2.8856480E-001	-1.9596152E+000	0
2.027131948790193E+002	-2.8545347E-001	-1.9596598E+000	0
2.027167948789283E+002	-2.8337291E-001	-1.9596343E+000	0
2.027179948788980E+002	-2.8234217E-001	-1.9596280E+000	0
2.027233948787616E+002	-2.8335384E-001	-1.9595834E+000	0
2.027267948786757E+002	-2.8436548E-001	-1.9596152E+000	0
2.027273948786606E+002	-2.8253305E-001	-1.9596915E+000	0
2.027275948786555E+002	-2.8096786E-001	-1.9596280E+000	0
2.027297948785999E+002	-2.7993712E-001	-1.9595708E+000	0
2.027313948785595E+002	-2.7841008E-001	-1.9595898E+000	0
2.027325948785292E+002	-2.7720755E-001	-1.9596217E+000	0
2.027431948782614E+002	-2.7533695E-001	-1.9596852E+000	0
2.027435948782513E+002	-2.7424896E-001	-1.9596407E+000	0
2.027457948781957E+002	-2.7558509E-001	-1.9596025E+000	0
2.027459948781907E+002	-2.7415350E-001	-1.9596852E+000	0
2.027527948780189E+002	-2.7516517E-001	-1.9596471E+000	0
2.027577948778926E+002	-2.7619591E-001	-1.9596217E+000	0
2.027587948778673E+002	-2.7736026E-001	-1.9596217E+000	0
2.027609948778118E+002	-2.7852461E-001	-1.9596089E+000	0
2.027613948778016E+002	-2.7957442E-001	-1.9596471E+000	0
2.027645948777208E+002	-2.8070062E-001	-1.9596217E+000	0
2.027699948775844E+002	-2.8186497E-001	-1.9596280E+000	0
2.027735948774935E+002	-2.8293389E-001	-1.9597044E+000	0
2.027741948774783E+002	-2.8112054E-001	-1.9596534E+000	0
2.027753948774480E+002	-2.8008980E-001	-1.9595643E+000	0
2.027769948774076E+002	-2.7768475E-001	-1.9597044E+000	0
2.027813948772964E+002	-2.7648222E-001	-1.9596915E+000	0
2.027849948772055E+002	-2.7535602E-001	-1.9595580E+000	0
2.027943948769680E+002	-2.7422985E-001	-1.9596280E+000	0
2.027987948768568E+002	-2.7277920E-001	-1.9596471E+000	0
2.027991948768467E+002	-2.7419168E-001	-1.9596598E+000	0
2.028183948763617E+002	-2.7529877E-001	-1.9596343E+000	0
2.028293948760838E+002	-2.7631041E-001	-1.9596407E+000	0
2.028327948759979E+002	-2.7736026E-001	-1.9596598E+000	0
2.028367948758969E+002	-2.7844825E-001	-1.9596534E+000	0
2.028391948758363E+002	-2.7957442E-001	-1.9595962E+000	0
2.028417948757706E+002	-2.7799016E-001	-1.9596980E+000	0
2.028525948754977E+002	-2.7524152E-001	-1.9596471E+000	0
2.028535948754725E+002	-2.7411532E-001	-1.9596471E+000	0
2.028625948752451E+002	-2.7300823E-001	-1.9596725E+000	0
2.028629948752350E+002	-2.7184388E-001	-1.9596598E+000	0
2.028757948749117E+002	-2.7291280E-001	-1.9596915E+000	0
2.028793948748207E+002	-2.7398172E-001	-1.9596343E+000	0
2.028827948747348E+002	-2.7505064E-001	-1.9596217E+000	0
2.028883948745934E+002	-2.7611956E-001	-1.9596152E+000	0
2.028909948745277E+002	-2.7715030E-001	-1.9596089E+000	0
2.028929948744772E+002	-2.7839100E-001	-1.9596534E+000	0
2.028933948744670E+002	-2.7957442E-001	-1.9595898E+000	0
2.028945948744367E+002	-2.7816194E-001	-1.9596280E+000	0
2.028955948744115E+002	-2.7642494E-001	-1.9596343E+000	0
2.028981948743458E+002	-2.7539420E-001	-1.9596471E+000	0
2.029015948742599E+002	-2.7392444E-001	-1.9596471E+000	0
2.029109948740224E+002	-2.7291280E-001	-1.9596343E+000	0
2.029181948738405E+002	-2.7188206E-001	-1.9596280E+000	0
2.029349948734161E+002	-2.6976332E-001	-1.9596343E+000	0
2.029545948729210E+002	-2.6745370E-001	-1.9596343E+000	0
2.029601948727795E+002	-2.6642296E-001	-1.9596534E+000	0
2.029615948727442E+002	-2.6541129E-001	-1.9596407E+000	0
2.029765948723652E+002	-2.6653749E-001	-1.9596407E+000	0
2.029821948722238E+002	-2.6420876E-001	-1.9596217E+000	0
2.029831948721985E+002	-2.6069662E-001	-1.9597297E+000	0
2.029837948721834E+002	-2.5966588E-001	-1.9596534E+000	0
2.029841948721732E+002	-2.5863513E-001	-1.9596789E+000	0
2.029863948721177E+002	-2.5758532E-001	-1.9596471E+000	0
2.029917948719813E+002	-2.5651640E-001	-1.9596598E+000	0
2.029949948719004E+002	-2.5353870E-001	-1.9596598E+000	0
2.030157948713750E+002	-2.5248885E-001	-1.9596598E+000	0
2.030209948712436E+002	-2.5084731E-001	-1.9596407E+000	0
2.030277948710718E+002	-2.4970205E-001	-1.9596471E+000	0
2.030303948710061E+002	-2.4710612E-001	-1.9596534E+000	0
2.030441948706575E+002	-2.4848044E-001	-1.9596152E+000	0
2.030465948705969E+002	-2.4951118E-001	-1.9596789E+000	0
2.030471948705817E+002	-2.4819411E-001	-1.9596471E+000	0
2.030549948703847E+002	-2.4718246E-001	-1.9596980E+000	0
2.030585948702937E+002	-2.4561727E-001	-1.9596534E+000	0
2.030675948700664E+002	-2.4664801E-001	-1.9596152E+000	0
2.030687948700361E+002	-2.4773601E-001	-1.9596852E+000	0
2.030729948699300E+002	-2.4880493E-001	-1.9596915E+000	0
2.030793948697683E+002	-2.4991202E-001	-1.9596725E+000	0
2.030813948697178E+002	-2.5120997E-001	-1.9596598E+000	0
2.030871948695712E+002	-2.4954934E-001	-1.9596661E+000	0
2.030949948693742E+002	-2.5071371E-001	-1.9597106E+000	0
2.030961948693439E+002	-2.4947301E-001	-1.9596343E+000	0
2.030985948692833E+002	-2.4846135E-001	-1.9596343E+000	0
2.031035948691570E+002	-2.4744970E-001	-1.9596980E+000	0
2.031053948691115E+002	-2.4636169E-001	-1.9596343E+000	0
2.031065948690812E+002	-2.4512099E-001	-1.9596217E+000	0
2.031085948690306E+002	-2.4613264E-001	-1.9596725E+000	0
2.031115948689549E+002	-2.4441473E-001	-1.9596025E+000	0
2.031137948688993E+002	-2.4330765E-001	-1.9596217E+000	0
2.031149948688690E+002	-2.4210511E-001	-1.9596343E+000	0
2.031169948688184E+002	-2.4074988E-001	-1.9595643E+000	0
2.031239948686416E+002	-2.4185698E-001	-1.9596407E+000	0
2.031285948685254E+002	-2.4294497E-001	-1.9596217E+000	0
2.031337948683940E+002	-2.4399480E-001	-1.9596471E+000	0
2.031363948683284E+002	-2.4508281E-001	-1.9596534E+000	0
2.031405948682223E+002	-2.4613264E-001	-1.9596025E+000	0
2.031437948681414E+002	-2.4714428E-001	-1.9595962E+000	0
2.031463948680757E+002	-2.4823229E-001	-1.9596280E+000	0
2.031525948679191E+002	-2.4702977E-001	-1.9596598E+000	0
2.031529948679090E+002	-2.4599902E-001	-1.9596280E+000	0
2.031613948676968E+002	-2.4487284E-001	-1.9595708E+000	0
2.031709948674543E+002	-2.4325038E-001	-1.9597170E+000	0
2.031749948673532E+002	-2.4202876E-001	-1.9596725E+000	0
2.031853948670905E+002	-2.4304041E-001	-1.9596343E+000	0
2.031899948669743E+002	-2.4412842E-001	-1.9596407E+000	0
2.031905948669591E+002	-2.4273501E-001	-1.9596343E+000	0
2.032011948666914E+002	-2.4160883E-001	-1.9596598E+000	0
2.032085948665044E+002	-2.4262048E-001	-1.9596725E+000	0
2.032123948664084E+002	-2.4368940E-001	-1.9596661E+000	0
2.032141948663630E+002	-2.4481557E-001	-1.9596789E+000	0
2.032181948662619E+002	-2.4376576E-001	-1.9596089E+000	0
2.032195948662265E+002	-2.4231508E-001	-1.9596598E+000	0
2.032295948659739E+002	-2.4336490E-001	-1.9596661E+000	0
2.032329948658880E+002	-2.4231508E-001	-1.9596598E+000	0
2.032369948657870E+002	-2.4355578E-001	-1.9596534E+000	0
2.032387948657415E+002	-2.4221964E-001	-1.9596852E+000	0
2.032403948657011E+002	-2.4378484E-001	-1.9596915E+000	0
2.032535948653676E+002	-2.4483466E-001	-1.9595898E+000	0
2.032555948653171E+002	-2.4586540E-001	-1.9596852E+000	0
2.032601948652009E+002	-2.4699159E-001	-1.9596343E+000	0
2.032657948650594E+002	-2.4802233E-001	-1.9596980E+000	0
2.032681948649988E+002	-2.4907215E-001	-1.9596598E+000	0
2.032713948649180E+002	-2.4798416E-001	-1.9597044E+000	0
2.032715948649129E+002	-2.4676253E-001	-1.9596598E+000	0
2.032743948648422E+002	-2.4561727E-001	-1.9596089E+000	0
2.032747948648321E+002	-2.4447200E-001	-1.9596343E+000	0
2.032763948647917E+002	-2.4342217E-001	-1.9596725E+000	0
2.032815948646603E+002	-2.4445291E-001	-1.9596152E+000	0
2.032825948646350E+002	-2.4340308E-001	-1.9597106E+000	0
2.032849948645744E+002	-2.4239142E-001	-1.9596534E+000	0
2.032903948644380E+002	-2.4137978E-001	-1.9596534E+000	0
2.032951948643167E+002	-2.3970005E-001	-1.9596217E+000	0
2.032957948643016E+002	-2.3845935E-001	-1.9596534E+000	0
2.033005948641803E+002	-2.3737134E-001	-1.9596661E+000	0
2.033017948641500E+002	-2.3626424E-001	-1.9595643E+000	0
2.033143948638317E+002	-2.3735225E-001	-1.9596280E+000	0
2.033179948637408E+002	-2.3593976E-001	-1.9596407E+000	0
2.033271948635083E+002	-2.3697050E-001	-1.9595708E+000	0
2.033287948634679E+002	-2.3595884E-001	-1.9596025E+000	0
2.033293948634528E+002	-2.3342016E-001	-1.9596407E+000	0
2.033351948633062E+002	-2.3223673E-001	-1.9595898E+000	0
2.033357948632911E+002	-2.3028977E-001	-1.9596343E+000	0
2.033363948632759E+002	-2.2916359E-001	-1.9596915E+000	0
2.033505948629172E+002	-2.3021342E-001	-1.9596343E+000	0
2.033519948628818E+002	-2.2918268E-001	-1.9596534E+000	0
2.033527948628616E+002	-2.2817102E-001	-1.9596343E+000	0
2.033579948627303E+002	-2.2710212E-001	-1.9596534E+000	0
2.033635948625888E+002	-2.2815193E-001	-1.9596471E+000	0
2.033645948625635E+002	-2.2706394E-001	-1.9595898E+000	0
2.033847948620532E+002	-2.2589958E-001	-1.9596407E+000	0
2.033853948620381E+002	-2.2460161E-001	-1.9597616E+000	0
2.033873948619876E+002	-2.2337998E-001	-1.9595962E+000	0
2.034051948615379E+002	-2.2460161E-001	-1.9596407E+000	0
2.034147948612954E+002	-2.2341816E-001	-1.9596725E+000	0
2.034229948610882E+002	-2.2469705E-001	-1.9596407E+000	0
2.034265948609973E+002	-2.2574687E-001	-1.9596534E+000	0
2.034329948608356E+002	-2.2427711E-001	-1.9596852E+000	0
2.034361948607548E+002	-2.2240651E-001	-1.9596598E+000	0
2.034407948606386E+002	-2.2063135E-001	-1.9596152E+000	0
2.034443948605476E+002	-2.1958151E-001	-1.9597297E+000	0
2.034451948605274E+002	-2.1855077E-001	-1.9596217E+000	0
2.034529948603304E+002	-2.1752004E-001	-1.9596471E+000	0
2.034695948599110E+002	-2.1650839E-001	-1.9596471E+000	0
2.034775948597089E+002	-2.1530585E-001	-1.9596725E+000	0
2.034965948592289E+002	-2.1633659E-001	-1.9596598E+000	0
2.035009948591178E+002	-2.1742460E-001	-1.9596661E+000	0
2.035175948586984E+002	-2.1843626E-001	-1.9596471E+000	0
2.035215948585974E+002	-2.1952425E-001	-1.9596471E+000	0
2.035269948584610E+002	-2.2066952E-001	-1.9596407E+000	0
2.035285948584205E+002	-2.2175753E-001	-1.9596852E+000	0
2.035291948584054E+002	-2.2044046E-001	-1.9596089E+000	0
2.035301948583801E+002	-2.1925703E-001	-1.9596152E+000	0
2.035383948581730E+002	-2.2032595E-001	-1.9596152E+000	0
2.035401948581275E+002	-2.2143303E-001	-1.9595962E+000	0
2.035423948580719E+002	-2.2248286E-001	-1.9596407E+000	0
2.035469948579557E+002	-2.2118489E-001	-1.9597044E+000	0
2.035497948578850E+002	-2.1904705E-001	-1.9596343E+000	0
2.035615948575869E+002	-2.1732916E-001	-1.9596280E+000	0
2.035685948574101E+002	-2.1618389E-001	-1.9596089E+000	0
2.035691948573949E+002	-2.1511498E-001	-1.9596280E+000	0
2.035723948573141E+002	-2.1395062E-001	-1.9595834E+000	0
2.035775948571827E+002	-2.1234724E-001	-1.9596534E+000	0
2.035849948569958E+002	-2.1343525E-001	-1.9596407E+000	0
2.035879948569200E+002	-2.1444690E-001	-1.9596089E+000	0
2.035907948568492E+002	-2.1332072E-001	-1.9596217E+000	0
2.036097948563693E+002	-2.1228999E-001	-1.9596852E+000	0
2.036131948562834E+002	-2.1104927E-001	-1.9596025E+000	0
2.036273948559246E+002	-2.1215637E-001	-1.9596343E+000	0
2.036279948559095E+002	-2.1103019E-001	-1.9596789E+000	0
2.036341948557529E+002	-2.1257630E-001	-1.9596280E+000	0
2.036541948552476E+002	-2.1362613E-001	-1.9595898E+000	0
2.036583948551415E+002	-2.1469505E-001	-1.9596725E+000	0
2.036675948549091E+002	-2.1572578E-001	-1.9596980E+000	0
2.036709948548232E+002	-2.1675652E-001	-1.9596407E+000	0
2.036753948547121E+002	-2.1776818E-001	-1.9596343E+000	0
2.036791948546161E+002	-2.1877983E-001	-1.9596915E+000	0
2.036885948543786E+002	-2.1982966E-001	-1.9596089E+000	0
2.036919948542927E+002	-2.1877983E-001	-1.9595898E+000	0
2.036979948541411E+002	-2.1769182E-001	-1.9595962E+000	0
2.037099948538380E+002	-2.1645112E-001	-1.9596471E+000	0
2.037213948535500E+002	-2.1538220E-001	-1.9596852E+000	0
2.037217948535399E+002	-2.1389335E-001	-1.9596725E+000	0
2.037283948533732E+002	-2.1288170E-001	-1.9596280E+000	0
2.037305948533176E+002	-2.1185097E-001	-1.9596280E+000	0
2.037327948532620E+002	-2.1080114E-001	-1.9596343E+000	0
2.037399948530801E+002	-2.0977040E-001	-1.9596598E+000	0
2.037517948527820E+002	-2.0749895E-001	-1.9596661E+000	0
2.037543948527164E+002	-2.0644912E-001	-1.9596025E+000	0
2.037889948518423E+002	-2.0539929E-001	-1.9596343E+000	0
2.037999948515644E+002	-2.0641094E-001	-1.9595898E+000	0
2.038029948514886E+002	-2.0744169E-001	-1.9596471E+000	0
2.038075948513724E+002	-2.0851061E-001	-1.9596915E+000	0
2.038093948513269E+002	-2.0982766E-001	-1.9596280E+000	0
2.038211948510288E+002	-2.1085840E-001	-1.9596280E+000	0
2.038233948509733E+002	-2.1198457E-001	-1.9596661E+000	0
2.038281948508520E+002	-2.1318711E-001	-1.9596725E+000	0
2.038317948507611E+002	-2.1204184E-001	-1.9596343E+000	0
2.038435948504630E+002	-2.1020941E-001	-1.9596407E+000	0
2.038573948501144E+002	-2.0894963E-001	-1.9596280E+000	0
2.038867948493717E+002	-2.0996127E-001	-1.9596725E+000	0
2.038881948493363E+002	-2.0893054E-001	-1.9596407E+000	0
2.038923948492302E+002	-2.0780435E-001	-1.9596789E+000	0
2.039015948489978E+002	-2.0604828E-001	-1.9595771E+000	0
2.039139948486845E+002	-2.0469305E-001	-1.9596089E+000	0
2.039161948486289E+002	-2.0349051E-001	-1.9596025E+000	0
2.039169948486087E+002	-2.0247886E-001	-1.9596217E+000	0
2.039183948485734E+002	-2.0142902E-001	-1.9596152E+000	0
2.039371948480984E+002	-2.0034103E-001	-1.9596152E+000	0
2.039469948478509E+002	-1.9877583E-001	-1.9596789E+000	0
2.039547948476538E+002	-1.9768782E-001	-1.9596534E+000	0
2.039655948473810E+002	-1.9871856E-001	-1.9596280E+000	0
2.039695948472800E+002	-1.9982566E-001	-1.9596915E+000	0
2.039813948469819E+002	-2.0087549E-001	-1.9596471E+000	0
2.039853948468808E+002	-2.0205893E-001	-1.9596407E+000	0
2.039905948467494E+002	-2.0102818E-001	-1.9596343E+000	0
2.040125948461937E+002	-1.9955842E-001	-1.9596534E+000	0
2.040151948461280E+002	-1.9818410E-001	-1.9596789E+000	0
2.040211948459764E+002	-1.9682887E-001	-1.9597044E+000	0
2.040247948458855E+002	-1.9574086E-001	-1.9596089E+000	0
2.040281948457996E+002	-1.9411841E-001	-1.9596598E+000	0
2.040323948456935E+002	-1.9308767E-001	-1.9596725E+000	0
2.040411948454712E+002	-1.9421385E-001	-1.9596407E+000	0
2.040449948453752E+002	-1.9522549E-001	-1.9596280E+000	0
2.040525948451832E+002	-1.9415659E-001	-1.9596280E+000	0
2.040537948451529E+002	-1.9299223E-001	-1.9596217E+000	0
2.040563948450872E+002	-1.9190422E-001	-1.9596217E+000	0
2.040669948448194E+002	-1.9089256E-001	-1.9596217E+000	0
2.040883948442788E+002	-1.9219054E-001	-1.9596471E+000	0
2.041015948439454E+002	-1.9117889E-001	-1.9596471E+000	0
2.041037948438898E+002	-1.9010997E-001	-1.9596661E+000	0
2.041147948436119E+002	-1.9123615E-001	-1.9596343E+000	0
2.041303948432178E+002	-1.9009088E-001	-1.9596407E+000	0
2.041433948428894E+002	-1.9144611E-001	-1.9596089E+000	0
2.041621948424145E+002	-1.9039629E-001	-1.9596980E+000	0
2.041671948422882E+002	-1.8934646E-001	-1.9596534E+000	0
2.041853948418284E+002	-1.9045354E-001	-1.9596217E+000	0
2.042083948412474E+002	-1.9146520E-001	-1.9596217E+000	0
2.042403948404390E+002	-1.8970913E-001	-1.9596407E+000	0
2.042433948403632E+002	-1.8856385E-001	-1.9596280E+000	0
2.042869948392618E+002	-1.8969004E-001	-1.9596471E+000	0
2.043261948382715E+002	-1.8846843E-001	-1.9596343E+000	0
2.043359948380239E+002	-1.8948007E-001	-1.9596534E+000	0
2.043371948379936E+002	-1.9052990E-001	-1.9595962E+000	0
2.043691948371852E+002	-1.8946098E-001	-1.9596280E+000	0
2.043781948369578E+002	-1.8844934E-001	-1.9596789E+000	0
2.043803948369023E+002	-1.8697958E-001	-1.9596089E+000	0
2.043903948366496E+002	-1.8592975E-001	-1.9596089E+000	0
2.043963948364981E+002	-1.8489900E-001	-1.9596407E+000	0
2.044239948358008E+002	-1.8604428E-001	-1.9596915E+000	0
2.044727948345680E+002	-1.8707500E-001	-1.9596915E+000	0
2.044795948343963E+002	-1.8812484E-001	-1.9596152E+000	0
2.044843948342750E+002	-1.8913649E-001	-1.9596280E+000	0
2.044915948340931E+002	-1.9028176E-001	-1.9596471E+000	0
2.045007948338607E+002	-1.9131251E-001	-1.9596407E+000	0
2.045043948337698E+002	-1.9018632E-001	-1.9596852E+000	0
2.045221948333201E+002	-1.8879291E-001	-1.9596343E+000	0
2.045295948331332E+002	-1.8778126E-001	-1.9596152E+000	0
2.045699948321126E+002	-1.8636876E-001	-1.9596152E+000	0
2.045943948314962E+002	-1.8741859E-001	-1.9596089E+000	0
2.046099948311021E+002	-1.8633059E-001	-1.9596852E+000	0
2.046111948310718E+002	-1.8526167E-001	-1.9596980E+000	0
2.046131948310212E+002	-1.8423092E-001	-1.9595962E+000	0
2.046233948307636E+002	-1.8320020E-001	-1.9596280E+000	0
2.046305948305817E+002	-1.8201675E-001	-1.9596661E+000	0
2.046319948305463E+002	-1.8090965E-001	-1.9596534E+000	0
2.046461948301876E+002	-1.7989801E-001	-1.9596217E+000	0
2.046501948300865E+002	-1.7861912E-001	-1.9596661E+000	0
2.046519948300411E+002	-1.7755020E-001	-1.9596852E+000	0
2.046671948296571E+002	-1.7632858E-001	-1.9596852E+000	0
2.047057948286820E+002	-1.7741659E-001	-1.9595962E+000	0
2.047367948278988E+002	-1.7638585E-001	-1.9596025E+000	0
2.047381948278635E+002	-1.7527875E-001	-1.9596471E+000	0
2.047435948277271E+002	-1.7415258E-001	-1.9596343E+000	0
2.047895948265650E+002	-1.7516422E-001	-1.9596152E+000	0
2.048227948257263E+002	-1.7659581E-001	-1.9596152E+000	0
2.048405948252766E+002	-1.7558417E-001	-1.9597106E+000	0
2.048457948251453E+002	-1.7440072E-001	-1.9596471E+000	0
2.048615948247461E+002	-1.7548873E-001	-1.9596534E+000	0
2.048737948244379E+002	-1.7443889E-001	-1.9596471E+000	0
2.048813948242459E+002	-1.7340815E-001	-1.9596152E+000	0
2.048965948238620E+002	-1.7449616E-001	-1.9596661E+000	0
2.048969948238519E+002	-1.7344633E-001	-1.9596789E+000	0
2.049355948228767E+002	-1.7243467E-001	-1.9596598E+000	0
2.049511948224826E+002	-1.7346542E-001	-1.9596661E+000	0
2.049723948219471E+002	-1.7230105E-001	-1.9596407E+000	0
2.049813948217197E+002	-1.7128941E-001	-1.9596598E+000	0
2.050365948203253E+002	-1.7027776E-001	-1.9595898E+000	0
2.050603948197240E+002	-1.6876982E-001	-1.9596343E+000	0
2.050671948195522E+002	-1.6768181E-001	-1.9596025E+000	0
2.051153948183346E+002	-1.6640294E-001	-1.9596661E+000	0
2.051229948181426E+002	-1.6539128E-001	-1.9596598E+000	0
2.051741948168492E+002	-1.6649838E-001	-1.9596217E+000	0
2.051893948164652E+002	-1.6756728E-001	-1.9596471E+000	0
2.052097948159499E+002	-1.6875073E-001	-1.9596089E+000	0
2.052507948149141E+002	-1.6773908E-001	-1.9596407E+000	0
2.052549948148080E+002	-1.6672742E-001	-1.9596471E+000	0
2.052655948145402E+002	-1.6565850E-001	-1.9596915E+000	0
2.052855948140350E+002	-1.6689922E-001	-1.9596725E+000	0
2.053347948127921E+002	-1.6791087E-001	-1.9596217E+000	0
2.053879948114482E+002	-1.6678469E-001	-1.9596471E+000	0
2.054069948109682E+002	-1.6575395E-001	-1.9596661E+000	0
2.054381948101800E+002	-1.6678469E-001	-1.9596725E+000	0
2.054759948092251E+002	-1.6779634E-001	-1.9596661E+000	0
2.054905948088563E+002	-1.6880800E-001	-1.9596217E+000	0
2.055017948085733E+002	-1.6762455E-001	-1.9596915E+000	0
2.055099948083662E+002	-1.6661289E-001	-1.9596025E+000	0
2.055179948081641E+002	-1.6535310E-001	-1.9596025E+000	0
2.056079948058905E+002	-1.6434145E-001	-1.9596280E+000	0
2.056575948046375E+002	-1.6537219E-001	-1.9596025E+000	0
2.056627948045061E+002	-1.6642202E-001	-1.9596598E+000	0
2.056713948042889E+002	-1.6535310E-001	-1.9596343E+000	0
2.056747948042030E+002	-1.6432236E-001	-1.9596598E+000	0
2.056871948038897E+002	-1.6329162E-001	-1.9596598E+000	0
2.057027948034956E+002	-1.6222271E-001	-1.9596343E+000	0
2.057153948031773E+002	-1.6090564E-001	-1.9596789E+000	0
2.057303948027984E+002	-1.5989399E-001	-1.9596343E+000	0
2.057423948024953E+002	-1.6100109E-001	-1.9596152E+000	0
2.057437948024599E+002	-1.6203183E-001	-1.9596025E+000	0
2.057483948023437E+002	-1.6100109E-001	-1.9595643E+000	0
2.057813948015100E+002	-1.5987492E-001	-1.9596598E+000	0
2.057925948012271E+002	-1.5884417E-001	-1.9596471E+000	0
2.058251948004036E+002	-1.5995125E-001	-1.9596217E+000	0
2.058543947996659E+002	-1.5884417E-001	-1.9596407E+000	0
2.059067947983422E+002	-1.6000852E-001	-1.9595962E+000	0
2.059147947981401E+002	-1.6102017E-001	-1.9596852E+000	0
2.059417947974580E+002	-1.5997034E-001	-1.9596025E+000	0
2.059857947963465E+002	-1.5884417E-001	-1.9597044E+000	0
2.060279947952804E+002	-1.5781343E-001	-1.9596089E+000	0
2.060517947946792E+002	-1.5674451E-001	-1.9596343E+000	0
2.060885947937495E+002	-1.5775616E-001	-1.9596598E+000	0
2.060961947935575E+002	-1.5668724E-001	-1.9596725E+000	0
2.061071947932796E+002	-1.5565650E-001	-1.9596598E+000	0
2.061181947930017E+002	-1.5460669E-001	-1.9596089E+000	0
2.061209947929310E+002	-1.5353777E-001	-1.9595834E+000	0
2.061737947915972E+002	-1.5246885E-001	-1.9596471E+000	0
2.062071947907534E+002	-1.5141901E-001	-1.9596089E+000	0
2.062553947895358E+002	-1.5014014E-001	-1.9596217E+000	0
2.063135947880655E+002	-1.5115179E-001	-1.9596598E+000	0
2.063279947877018E+002	-1.5218253E-001	-1.9596598E+000	0
2.063407947873784E+002	-1.5319419E-001	-1.9596534E+000	0
2.063549947870197E+002	-1.5420583E-001	-1.9596598E+000	0
2.064003947858728E+002	-1.5315601E-001	-1.9596789E+000	0
2.064109947856050E+002	-1.5206800E-001	-1.9596534E+000	0
2.064361947849684E+002	-1.5080822E-001	-1.9596217E+000	0
2.064561947844632E+002	-1.4977747E-001	-1.9595643E+000	0
2.064827947837912E+002	-1.4849858E-001	-1.9596280E+000	0
2.064893947836244E+002	-1.4735332E-001	-1.9596789E+000	0
2.065597947818460E+002	-1.4844133E-001	-1.9596089E+000	0
2.066457947796735E+002	-1.4735332E-001	-1.9596407E+000	0
2.066531947794865E+002	-1.4634167E-001	-1.9596407E+000	0
2.066977947783598E+002	-1.4741059E-001	-1.9596217E+000	0
2.067263947776373E+002	-1.4851767E-001	-1.9596598E+000	0
2.067627947767178E+002	-1.4746785E-001	-1.9596789E+000	0
2.067745947764197E+002	-1.4628440E-001	-1.9596598E+000	0
2.067991947757982E+002	-1.4521548E-001	-1.9595962E+000	0
2.068099947755254E+002	-1.4399387E-001	-1.9596789E+000	0
2.068405947747524E+002	-1.4292495E-001	-1.9596534E+000	0
2.069125947729335E+002	-1.4181785E-001	-1.9596089E+000	0
2.069221947726910E+002	-1.4080621E-001	-1.9596789E+000	0
2.069513947719533E+002	-1.3979456E-001	-1.9596661E+000	0
2.070383947697555E+002	-1.3870655E-001	-1.9596217E+000	0
2.071127947678760E+002	-1.3754219E-001	-1.9596534E+000	0
2.071295947674516E+002	-1.3651146E-001	-1.9596343E+000	0
2.072193947651831E+002	-1.3548072E-001	-1.9595962E+000	0
2.072645947640412E+002	-1.3444997E-001	-1.9596725E+000	0
2.073313947623537E+002	-1.3546163E-001	-1.9596089E+000	0
2.073953947607370E+002	-1.3444997E-001	-1.9596025E+000	0
2.074031947605399E+002	-1.3548072E-001	-1.9596280E+000	0
2.074955947582057E+002	-1.3653055E-001	-1.9595580E+000	0
2.075367947571649E+002	-1.3756128E-001	-1.9596280E+000	0
2.075659947564272E+002	-1.3591973E-001	-1.9596407E+000	0
2.076397947545629E+002	-1.3467902E-001	-1.9596725E+000	0
2.076517947542598E+002	-1.3366738E-001	-1.9596598E+000	0
2.076905947532796E+002	-1.3263664E-001	-1.9596598E+000	0
2.077373947520973E+002	-1.3160589E-001	-1.9596852E+000	0
2.078611947489699E+002	-1.3059424E-001	-1.9596725E+000	0
2.078833947484090E+002	-1.2958258E-001	-1.9596471E+000	0
2.079255947473430E+002	-1.3061333E-001	-1.9596152E+000	0
2.080137947451149E+002	-1.2952532E-001	-1.9596598E+000	0
2.080569947440235E+002	-1.3061333E-001	-1.9596280E+000	0
2.081913947406283E+002	-1.2958258E-001	-1.9596343E+000	0
2.082395947394107E+002	-1.3084237E-001	-1.9596725E+000	0
2.082787947384204E+002	-1.3185403E-001	-1.9596725E+000	0
2.083125947375665E+002	-1.3084237E-001	-1.9596598E+000	0
2.083423947368137E+002	-1.3193038E-001	-1.9596217E+000	0
2.083967947354395E+002	-1.3298021E-001	-1.9596471E+000	0
2.084121947350504E+002	-1.3196856E-001	-1.9596217E+000	0
2.084573947339086E+002	-1.3095690E-001	-1.9595771E+000	0
2.084917947330396E+002	-1.3196856E-001	-1.9596852E+000	0
2.085111947325495E+002	-1.3095690E-001	-1.9596789E+000	0
2.085609947312914E+002	-1.2990707E-001	-1.9596407E+000	0
2.086251947296696E+002	-1.2879999E-001	-1.9596852E+000	0
2.086331947294675E+002	-1.2769289E-001	-1.9596598E+000	0
2.086355947294069E+002	-1.2605134E-001	-1.9596217E+000	0
2.086435947292048E+002	-1.2502061E-001	-1.9596407E+000	0
2.086613947287551E+002	-1.2395169E-001	-1.9596471E+000	0
2.089169947222981E+002	-1.2273007E-001	-1.9596343E+000	0
2.089819947206561E+002	-1.2171842E-001	-1.9596725E+000	0
2.092969947126985E+002	-1.2276825E-001	-1.9596789E+000	0
2.093345947117487E+002	-1.2379899E-001	-1.9596025E+000	0
2.093683947108948E+002	-1.2240558E-001	-1.9596789E+000	0
2.093997947101016E+002	-1.2139393E-001	-1.9596471E+000	0
2.094439947089850E+002	-1.2255828E-001	-1.9597044E+000	0
2.095115947072773E+002	-1.2154663E-001	-1.9596661E+000	0
2.096277947043418E+002	-1.2053498E-001	-1.9596407E+000	0
2.096571947035991E+002	-1.1952332E-001	-1.9596217E+000	0
2.098031946999108E+002	-1.1851167E-001	-1.9596534E+000	0
2.099343946965964E+002	-1.1750001E-001	-1.9595962E+000	0
2.099531946961215E+002	-1.1646928E-001	-1.9596407E+000	0
2.100377946939843E+002	-1.1540036E-001	-1.9596280E+000	0
2.101185946919431E+002	-1.1431236E-001	-1.9596089E+000	0
2.105823946802266E+002	-1.1534309E-001	-1.9596407E+000	0
2.106475946785795E+002	-1.1637384E-001	-1.9596661E+000	0
2.107337946764019E+002	-1.1536218E-001	-1.9596661E+000	0
2.107943946748710E+002	-1.1433145E-001	-1.9596280E+000	0
2.110629946680856E+002	-1.1331979E-001	-1.9596280E+000	0
2.117933946496341E+002	-1.1225087E-001	-1.9596789E+000	0
2.120861946422374E+002	-1.1337706E-001	-1.9596152E+000	0
2.122799946373416E+002	-1.1234631E-001	-1.9597044E+000	0
2.124255946336634E+002	-1.1131557E-001	-1.9596598E+000	0
2.128127946238819E+002	-1.1024666E-001	-1.9596343E+000	0
2.131537946152675E+002	-1.0913956E-001	-1.9596343E+000	0
2.132843946119683E+002	-1.0810883E-001	-1.9596661E+000	0
2.135885946042836E+002	-1.0919683E-001	-1.9596852E+000	0
2.137565946000395E+002	-1.1022757E-001	-1.9596471E+000	0
2.149383945701848E+002	-1.0921592E-001	-1.9596471E+000	0
2.151667945644149E+002	-1.1022757E-001	-1.9596725E+000	0
2.157953945485351E+002	-1.1131557E-001	-1.9595898E+000	0
2.160513945420680E+002	-1.1240358E-001	-1.9596025E+000	0
2.164103945329989E+002	-1.1341523E-001	-1.9596280E+000	0
2.165375945297856E+002	-1.1240358E-001	-1.9596152E+000	0
2.166997945256880E+002	-1.1341523E-001	-1.9596725E+000	0
2.172281945123395E+002	-1.1444597E-001	-1.9596471E+000	0
2.174593945064989E+002	-1.1551489E-001	-1.9596471E+000	0
2.178713944960909E+002	-1.1652654E-001	-1.9595962E+000	0
2.189971944676508E+002	-1.1551489E-001	-1.9595898E+000	0
2.191829944629571E+002	-1.1652654E-001	-1.9595898E+000	0
2.195071944547672E+002	-1.1755728E-001	-1.9596789E+000	0
2.197987944474007E+002	-1.1860711E-001	-1.9596280E+000	0
2.198885944451322E+002	-1.1973329E-001	-1.9595834E+000	0
2.199303944440762E+002	-1.1862620E-001	-1.9596217E+000	0
2.202109944369877E+002	-1.1965694E-001	-1.9596089E+000	0
2.207217944240838E+002	-1.2068768E-001	-1.9595834E+000	0
2.210861944148783E+002	-1.2169933E-001	-1.9596152E+000	0
2.212865944098157E+002	-1.2274916E-001	-1.9596089E+000	0
2.213485944082495E+002	-1.2377990E-001	-1.9596343E+000	0
2.215979944019491E+002	-1.2276825E-001	-1.9596471E+000	0
2.216299944011407E+002	-1.2171842E-001	-1.9596152E+000	0
2.218329943960125E+002	-1.2070677E-001	-1.9596343E+000	0
2.218909943945473E+002	-1.2171842E-001	-1.9596089E+000	0
2.223323943833966E+002	-1.2070677E-001	-1.9596217E+000	0
2.227467943729280E+002	-1.2173751E-001	-1.9595580E+000	0
2.227969943716598E+002	-1.2057315E-001	-1.9596598E+000	0
2.228187943711091E+002	-1.1954241E-001	-1.9596661E+000	0
2.229831943669560E+002	-1.2057315E-001	-1.9596471E+000	0
2.232399943604687E+002	-1.2160389E-001	-1.9596471E+000	0
2.237127943485248E+002	-1.2261555E-001	-1.9596661E+000	0
2.238195943458268E+002	-1.2362720E-001	-1.9595962E+000	0
2.240461943401024E+002	-1.2252010E-001	-1.9596343E+000	0
2.240581943397992E+002	-1.2150846E-001	-1.9596407E+000	0
2.240919943389454E+002	-1.2042045E-001	-1.9596280E+000	0
2.248075943208678E+002	-1.2147028E-001	-1.9596152E+000	0
2.254335943050537E+002	-1.2252010E-001	-1.9596025E+000	0
2.256075943006581E+002	-1.2147028E-001	-1.9595834E+000	0
2.256723942990211E+002	-1.2252010E-001	-1.9596661E+000	0
2.258019942957471E+002	-1.2147028E-001	-1.9596089E+000	0
2.260619942891790E+002	-1.2045863E-001	-1.9596152E+000	0
2.261165942877997E+002	-1.1942788E-001	-1.9596789E+000	0
2.266277942748857E+002	-1.2043954E-001	-1.9596217E+000	0
2.270777942635177E+002	-1.1940879E-001	-1.9596280E+000	0
2.272249942597991E+002	-1.2045863E-001	-1.9597044E+000	0
2.273837942557875E+002	-1.2147028E-001	-1.9596534E+000	0
2.275301942520891E+002	-1.2042045E-001	-1.9596089E+000	0
2.276001942503208E+002	-1.2143210E-001	-1.9596534E+000	0
2.277153942474106E+002	-1.2042045E-001	-1.9596980E+000	0
2.277561942463799E+002	-1.1927518E-001	-1.9597044E+000	0
2.278747942433838E+002	-1.2034409E-001	-1.9596471E+000	0
2.280787942382303E+002	-1.2135575E-001	-1.9596471E+000	0
2.281087942374725E+002	-1.2028684E-001	-1.9596343E+000	0
2.287383942215674E+002	-1.2139393E-001	-1.9595708E+000	0
2.295545942009485E+002	-1.2032501E-001	-1.9596089E+000	0
2.303183941816533E+002	-1.1931336E-001	-1.9596343E+000	0
2.306229941739584E+002	-1.2032501E-001	-1.9596471E+000	0
2.316989941467764E+002	-1.1931336E-001	-1.9596598E+000	0
2.319777941397333E+002	-1.1824444E-001	-1.9596789E+000	0
2.323033941315080E+002	-1.1717553E-001	-1.9596725E+000	0
2.323407941305632E+002	-1.1616387E-001	-1.9597170E+000	0
2.328109941186849E+002	-1.1509495E-001	-1.9596471E+000	0
2.339447940900427E+002	-1.1408331E-001	-1.9596471E+000	0
2.339863940889918E+002	-1.1303347E-001	-1.9595898E+000	0
2.343773940791143E+002	-1.1404513E-001	-1.9596407E+000	0
2.347799940689438E+002	-1.1295712E-001	-1.9596471E+000	0
2.350519940620725E+002	-1.1190730E-001	-1.9596217E+000	0
2.357127940453793E+002	-1.1087655E-001	-1.9595962E+000	0
2.360379940371640E+002	-1.1188821E-001	-1.9596217E+000	0
2.361669940339052E+002	-1.1087655E-001	-1.9596152E+000	0
2.366759940210468E+002	-1.0986490E-001	-1.9596152E+000	0
2.367719940186216E+002	-1.0885325E-001	-1.9596598E+000	0
2.370199940123566E+002	-1.0784160E-001	-1.9596661E+000	0
2.372427940067282E+002	-1.0889142E-001	-1.9595771E+000	0
2.373939940029086E+002	-1.0994125E-001	-1.9596980E+000	0
2.375891939979774E+002	-1.0889142E-001	-1.9596217E+000	0
2.388339939665311E+002	-1.0787977E-001	-1.9596725E+000	0
2.396335939463315E+002	-1.0889142E-001	-1.9596025E+000	0
2.406595939204126E+002	-1.0994125E-001	-1.9596343E+000	0
2.408839939147438E+002	-1.0892960E-001	-1.9596471E+000	0
2.409741939124651E+002	-1.0789886E-001	-1.9596407E+000	0
2.416917938943370E+002	-1.0688721E-001	-1.9596025E+000	0
2.422061938813422E+002	-1.0789886E-001	-1.9596025E+000	0
2.425105938736524E+002	-1.0686812E-001	-1.9596598E+000	0
2.435781938466826E+002	-1.0787977E-001	-1.9596789E+000	0
2.437315938428073E+002	-1.0917774E-001	-1.9595580E+000	0
2.437627938420192E+002	-1.1020848E-001	-1.9596980E+000	0
2.441819938314293E+002	-1.1122014E-001	-1.9596407E+000	0
2.446591938193742E+002	-1.1226996E-001	-1.9596152E+000	0
2.460249937848712E+002	-1.1123922E-001	-1.9596471E+000	0
2.461823937808949E+002	-1.1020848E-001	-1.9596471E+000	0
2.463005937779089E+002	-1.0904413E-001	-1.9596152E+000	0
2.464385937744228E+002	-1.0795612E-001	-1.9596280E+000	0
2.471903937554307E+002	-1.0694447E-001	-1.9596217E+000	0
2.481679937307345E+002	-1.0797521E-001	-1.9596343E+000	0
2.493749937002431E+002	-1.0898686E-001	-1.9596025E+000	0
2.497407936910022E+002	-1.0787977E-001	-1.9596725E+000	0
2.508533936628955E+002	-1.0892960E-001	-1.9596152E+000	0
2.510907936568983E+002	-1.0791795E-001	-1.9595580E+000	0
2.514549936476978E+002	-1.0690629E-001	-1.9596852E+000	0
2.520939936315554E+002	-1.0791795E-001	-1.9596471E+000	0
2.531727936043026E+002	-1.0688721E-001	-1.9597106E+000	0
2.538023935883975E+002	-1.0587555E-001	-1.9596661E+000	0
2.540987935809098E+002	-1.0480664E-001	-1.9596407E+000	0
2.552647935514542E+002	-1.0587555E-001	-1.9596152E+000	0
2.554995935455227E+002	-1.0486390E-001	-1.9596217E+000	0
2.574641934958927E+002	-1.0597099E-001	-1.9596280E+000	0
2.597545934380323E+002	-1.0702082E-001	-1.9596661E+000	0
2.600097934315854E+002	-1.0597099E-001	-1.9596407E+000	0
2.616053933912772E+002	-1.0700173E-001	-1.9596598E+000	0
2.616619933898473E+002	-1.0599008E-001	-1.9596471E+000	0
2.618085933861439E+002	-1.0495934E-001	-1.9596534E+000	0
2.619921933815058E+002	-1.0536018E-001	-1.9596280E+000	0