time/s	Ewe/V	I/mA	error	
6.005299848293362E+001	2.8259680E+000	-2.5006020E-002	0
6.017319847989711E+001	9.1182841E-003	-1.1706173E+001	0
6.017379847988195E+001	9.0991966E-003	-1.1641285E+001	0
6.017439847986680E+001	9.0610208E-003	-1.1573217E+001	0
6.017499847985164E+001	9.1373716E-003	-1.1506421E+001	0
6.017559847983648E+001	9.0610208E-003	-1.1438989E+001	0
6.017619847982132E+001	9.0610208E-003	-1.1363923E+001	0
6.017679847980617E+001	9.1182841E-003	-1.1304124E+001	0
6.017739847979101E+001	9.0991966E-003	-1.1239873E+001	0
6.017799847977585E+001	9.1564599E-003	-1.1178802E+001	0
6.017859847976069E+001	9.1182841E-003	-1.1109461E+001	0
6.017919847974554E+001	9.0801083E-003	-1.1048390E+001	0
6.017979847973038E+001	9.0419333E-003	-1.0987956E+001	0
6.018039847971522E+001	9.0610208E-003	-1.0919251E+001	0
6.018099847970007E+001	9.0228450E-003	-1.0855636E+001	0
6.018159847968491E+001	9.0801083E-003	-1.0801562E+001	0
6.018219847966975E+001	9.0991966E-003	-1.0739856E+001	0
6.018279847965459E+001	9.1182841E-003	-1.0678785E+001	0
6.018339847963944E+001	9.0991966E-003	-1.0618987E+001	0
6.018399847962428E+001	8.9083184E-003	-1.0556007E+001	0
6.018459847960912E+001	9.0801083E-003	-1.0503842E+001	0
6.018519847959396E+001	9.1182841E-003	-1.0438955E+001	0
6.018579847957881E+001	9.0610208E-003	-1.0379157E+001	0
6.018639847956365E+001	9.0991966E-003	-1.0321267E+001	0
6.018699847954849E+001	9.1564599E-003	-1.0260832E+001	0
6.018759847953334E+001	9.0610208E-003	-1.0205486E+001	0
6.018839847951313E+001	9.0991966E-003	-1.0131693E+001	0
6.018919847949292E+001	9.0801083E-003	-1.0057263E+001	0
6.018979847947776E+001	9.0228450E-003	-9.9993725E+000	0
6.019059847945755E+001	9.1373716E-003	-9.9300318E+000	0
6.019139847943734E+001	9.0610208E-003	-9.8600550E+000	0
6.019199847942218E+001	9.0801083E-003	-9.8047094E+000	0
6.019279847940197E+001	9.1564599E-003	-9.7353687E+000	0
6.019339847938681E+001	9.1182841E-003	-9.6812963E+000	0
6.019419847936661E+001	9.0991966E-003	-9.6113195E+000	0
6.019499847934640E+001	9.0419333E-003	-9.5387983E+000	0
6.019579847932619E+001	9.0610208E-003	-9.4777269E+000	0
6.019639847931103E+001	9.0419333E-003	-9.4249258E+000	0
6.019719847929082E+001	9.0228450E-003	-9.3562212E+000	0
6.019779847927566E+001	9.0228450E-003	-9.3053293E+000	0
6.019859847925545E+001	9.0610208E-003	-9.2429867E+000	0
6.019919847924029E+001	9.1182841E-003	-9.1870041E+000	0
6.019999847922008E+001	9.2137232E-003	-9.1303873E+000	0
6.020059847920493E+001	9.0228450E-003	-9.0801315E+000	0
6.020139847918472E+001	9.1373716E-003	-9.0190601E+000	0
6.020219847916451E+001	8.9655817E-003	-8.9649868E+000	0
6.020279847914935E+001	9.0801083E-003	-8.9134588E+000	0
6.020359847912914E+001	9.0610208E-003	-8.8479347E+000	0
6.020439847910893E+001	9.1373716E-003	-8.7906809E+000	0
6.020499847909377E+001	9.0991966E-003	-8.7353363E+000	0
6.020599847906851E+001	9.0801083E-003	-8.6640863E+000	0
6.020679847904830E+001	9.1946358E-003	-8.6138296E+000	0
6.020739847903315E+001	9.0991966E-003	-8.5623016E+000	0
6.020819847901294E+001	9.0610208E-003	-8.5037756E+000	0
6.020899847899273E+001	9.0228450E-003	-8.4446135E+000	0
6.020979847897252E+001	9.0610208E-003	-8.3892679E+000	0
6.021059847895231E+001	9.1564599E-003	-8.3301058E+000	0
6.021139847893210E+001	9.0610208E-003	-8.2741241E+000	0
6.021219847891189E+001	9.1182841E-003	-8.2225952E+000	0
6.021299847889168E+001	9.0228450E-003	-8.1691589E+000	0
6.021379847887147E+001	9.1946358E-003	-8.1055431E+000	0
6.021479847884621E+001	9.0610208E-003	-8.0489254E+000	0
6.021559847882600E+001	9.0610208E-003	-7.9834023E+000	0
6.021659847880073E+001	8.9464942E-003	-7.9223318E+000	0
6.021739847878052E+001	9.1373716E-003	-7.8701663E+000	0
6.021839847875526E+001	9.0228450E-003	-7.8052793E+000	0
6.021939847873000E+001	9.0991966E-003	-7.7416635E+000	0
6.022039847870474E+001	9.0037575E-003	-7.6780481E+000	0
6.022139847867948E+001	9.0991966E-003	-7.6176138E+000	0
6.022239847865421E+001	9.0991966E-003	-7.5520902E+000	0
6.022339847862895E+001	9.0801083E-003	-7.4961085E+000	0
6.022419847860874E+001	9.0037575E-003	-7.4426723E+000	0
6.022519847858348E+001	9.1373716E-003	-7.3809648E+000	0
6.022619847855822E+001	8.9655817E-003	-7.3281636E+000	0
6.022719847853296E+001	9.0801083E-003	-7.2658210E+000	0
6.022819847850769E+001	9.0801083E-003	-7.2123842E+000	0
6.022919847848243E+001	9.0801083E-003	-7.1513133E+000	0
6.023019847845717E+001	9.0228450E-003	-7.0972404E+000	0
6.023119847843191E+001	9.0228450E-003	-7.0412588E+000	0
6.023219847840664E+001	9.0610208E-003	-6.9833689E+000	0
6.023319847838138E+001	9.0610208E-003	-6.9299321E+000	0
6.023419847835612E+001	9.1182841E-003	-6.8688612E+000	0
6.023539847832581E+001	9.0991966E-003	-6.8141518E+000	0
6.023639847830054E+001	9.1182841E-003	-6.7607145E+000	0
6.023739847827528E+001	9.0419333E-003	-6.7034607E+000	0
6.023859847824497E+001	9.1182841E-003	-6.6385736E+000	0
6.023979847821465E+001	9.0610208E-003	-6.5832276E+000	0
6.024079847818939E+001	9.0228450E-003	-6.5304275E+000	0
6.024199847815908E+001	9.0228450E-003	-6.4674482E+000	0
6.024319847812876E+001	9.0419333E-003	-6.4108310E+000	0
6.024439847809845E+001	9.0419333E-003	-6.3561211E+000	0
6.024539847807318E+001	9.0228450E-003	-6.3020482E+000	0
6.024659847804287E+001	9.0228450E-003	-6.2498841E+000	0
6.024779847801256E+001	9.0801083E-003	-6.1907220E+000	0
6.024899847798224E+001	9.1564599E-003	-6.1372848E+000	0
6.025019847795193E+001	9.0228450E-003	-6.0844841E+000	0
6.025119847792666E+001	9.0991966E-003	-6.0329556E+000	0
6.025279847788624E+001	9.0610208E-003	-5.9763374E+000	0
6.025399847785593E+001	9.0419333E-003	-5.9190836E+000	0
6.025519847782562E+001	9.0228450E-003	-5.8688278E+000	0
6.025639847779530E+001	9.0419333E-003	-5.8147550E+000	0
6.025779847775993E+001	9.0610208E-003	-5.7632265E+000	0
6.025919847772457E+001	9.0991966E-003	-5.6989751E+000	0
6.026079847768415E+001	9.0991966E-003	-5.6398125E+000	0
6.026239847764373E+001	9.1946358E-003	-5.5787420E+000	0
6.026379847760836E+001	9.0037575E-003	-5.5253048E+000	0
6.026539847756794E+001	9.0610208E-003	-5.4616899E+000	0
6.026699847752752E+001	9.0801083E-003	-5.4076161E+000	0
6.026859847748710E+001	9.0419333E-003	-5.3503628E+000	0
6.026999847745174E+001	9.0991966E-003	-5.2994704E+000	0
6.027179847740626E+001	9.1564599E-003	-5.2345829E+000	0
6.027339847736584E+001	9.0610208E-003	-5.1811461E+000	0
6.027539847731532E+001	9.0801083E-003	-5.1232557E+000	0
6.027699847727490E+001	9.0037575E-003	-5.0704546E+000	0
6.027859847723448E+001	9.0801083E-003	-5.0157461E+000	0
6.028039847718901E+001	9.1182841E-003	-4.9527664E+000	0
6.028259847713343E+001	9.0991966E-003	-4.9012380E+000	0
6.028439847708796E+001	9.0419333E-003	-4.8357143E+000	0
6.028639847703744E+001	8.9655817E-003	-4.7854581E+000	0
6.028819847699197E+001	9.0610208E-003	-4.7352023E+000	0
6.028999847694649E+001	9.0037575E-003	-4.6836739E+000	0
6.029219847689092E+001	9.0037575E-003	-4.6181493E+000	0
6.029419847684039E+001	9.0228450E-003	-4.5628042E+000	0
6.029639847678482E+001	9.1373716E-003	-4.5119123E+000	0
6.029859847672924E+001	9.0419333E-003	-4.4584751E+000	0
6.030079847667366E+001	8.9655817E-003	-4.4037657E+000	0
6.030319847661303E+001	8.9846700E-003	-4.3490567E+000	0
6.030519847656251E+001	9.1182841E-003	-4.2968922E+000	0
6.030759847650188E+001	9.0991966E-003	-4.2428193E+000	0
6.030999847644125E+001	9.0419333E-003	-4.1912909E+000	0
6.031239847638062E+001	9.0991966E-003	-4.1403985E+000	0
6.031459847632505E+001	9.0419333E-003	-4.0901427E+000	0
6.031739847625431E+001	9.0801083E-003	-4.0328884E+000	0
6.031999847618863E+001	9.1564599E-003	-3.9813600E+000	0
6.032259847612295E+001	9.1946358E-003	-3.9298315E+000	0
6.032519847605727E+001	9.0801083E-003	-3.8776667E+000	0
6.032819847598148E+001	9.0228450E-003	-3.8204129E+000	0
6.033139847590064E+001	9.1182841E-003	-3.7682488E+000	0
6.033399847583496E+001	9.0228450E-003	-3.7173560E+000	0
6.033739847574907E+001	9.0991966E-003	-3.6639194E+000	0
6.034019847567833E+001	9.0801083E-003	-3.6079378E+000	0
6.034359847559244E+001	9.0610208E-003	-3.5538647E+000	0
6.034679847551160E+001	9.0991966E-003	-3.5023365E+000	0
6.034999847543077E+001	9.0037575E-003	-3.4495358E+000	0
6.035359847533982E+001	9.0991966E-003	-3.3992796E+000	0
6.035699847525393E+001	9.0610208E-003	-3.3490233E+000	0
6.036079847515794E+001	9.1182841E-003	-3.2949502E+000	0
6.036419847507204E+001	9.0991966E-003	-3.2446942E+000	0
6.036799847497605E+001	9.0801083E-003	-3.1931658E+000	0
6.037179847488005E+001	9.1755474E-003	-3.1429095E+000	0
6.037319847484468E+001	9.0801083E-003	-3.1960449E+000	0
6.040339847408177E+001	9.0801083E-003	-2.8190279E+000	0
6.040839847395546E+001	9.1755474E-003	-2.7686498E+000	0
6.041379847381904E+001	9.0228450E-003	-2.7163639E+000	0
6.041939847367757E+001	9.1182841E-003	-2.6649680E+000	0
6.042519847353105E+001	9.0991966E-003	-2.6139543E+000	0
6.043139847337443E+001	9.1182841E-003	-2.5616045E+000	0
6.043779847321275E+001	9.0610208E-003	-2.5105271E+000	0
6.044439847304602E+001	9.1182841E-003	-2.4595766E+000	0
6.045139847286919E+001	9.2137232E-003	-2.4090080E+000	0
6.045879847268225E+001	9.0228450E-003	-2.3578033E+000	0
6.046639847249025E+001	9.0610208E-003	-2.3076162E+000	0
6.047439847228816E+001	8.9846700E-003	-2.2573020E+000	0
6.048279847207596E+001	8.9846700E-003	-2.2067332E+000	0
6.049179847184860E+001	9.0419333E-003	-2.1563554E+000	0
6.050139847160608E+001	9.0037575E-003	-2.1051509E+000	0
6.051159847134841E+001	9.0991966E-003	-2.0536277E+000	0
6.052219847108063E+001	9.0991966E-003	-2.0035682E+000	0
6.053339847079769E+001	9.0991966E-003	-1.9535083E+000	0
6.054539847049455E+001	9.0610208E-003	-1.9022398E+000	0
6.055819847017119E+001	9.0801083E-003	-1.8520529E+000	0
6.057179846982763E+001	9.0037575E-003	-1.8014207E+000	0
6.058639846945880E+001	9.0419333E-003	-1.7512336E+000	0
6.060159846907482E+001	9.0801083E-003	-1.7009194E+000	0
6.061819846865546E+001	9.0991966E-003	-1.6506689E+000	0
6.063579846821085E+001	9.1755474E-003	-1.5992731E+000	0
6.065519846772077E+001	9.0991966E-003	-1.5490862E+000	0
6.067559846720542E+001	8.9846700E-003	-1.4977542E+000	0
6.069779846664460E+001	8.9655817E-003	-1.4464859E+000	0
6.072179846603831E+001	9.0801083E-003	-1.3959808E+000	0
6.074719846539665E+001	9.0419333E-003	-1.3456664E+000	0
6.077519846468931E+001	9.0419333E-003	-1.2943982E+000	0
6.080539846392639E+001	9.0991966E-003	-1.2443384E+000	0
6.083779846310790E+001	9.1373716E-003	-1.1940242E+000	0
6.087339846220857E+001	9.1373716E-003	-1.1430103E+000	0
6.091219846122840E+001	9.0991966E-003	-1.0928868E+000	0
6.095439846016234E+001	9.0610208E-003	-1.0424454E+000	0
6.100039845900028E+001	8.9274067E-003	-9.9206752E-001	0
6.105219845769170E+001	9.0228450E-003	-9.4200772E-001	0
6.110919845625176E+001	9.1182841E-003	-8.9194787E-001	0
6.117259845465014E+001	9.0801083E-003	-8.4176087E-001	0
6.124379845285148E+001	9.0801083E-003	-7.9151022E-001	0
6.132499845080019E+001	9.0801083E-003	-7.4132329E-001	0
6.141779844845587E+001	9.0610208E-003	-6.9081819E-001	0
6.152439844576293E+001	9.0228450E-003	-6.4044034E-001	0
6.164979844259506E+001	9.0419333E-003	-5.9031695E-001	0
6.179739843886637E+001	9.0991966E-003	-5.3962111E-001	0
6.197619843434950E+001	9.0419333E-003	-4.8949763E-001	0
6.219579842880194E+001	8.9655817E-003	-4.3886533E-001	0
6.250019842111215E+001	9.1564599E-003	-3.8873661E-001	0
6.287099841174495E+001	9.1373716E-003	-3.3870777E-001	0
6.337259839907347E+001	8.9846700E-003	-2.8869170E-001	0
6.409619838079379E+001	8.9655817E-003	-2.3863740E-001	0
6.505279835662805E+001	9.0801083E-003	-1.9495839E-001	0
6.505339835659834E+001	9.1182841E-003	-1.9465297E-001	0
6.687559831056569E+001	9.0801083E-003	-1.4453509E-001	0
7.075399821258907E+001	8.9464942E-003	-9.4531700E-002	0
8.075399795996782E+001	9.1564599E-003	-5.0381884E-002	0
9.075399770734657E+001	9.0610208E-003	-3.4474373E-002	0
1.007539974547253E+002	9.0991966E-003	-2.5860149E-002	0
1.107539972021041E+002	9.0419333E-003	-2.0650398E-002	0
1.207539969494828E+002	9.1373716E-003	-1.7193766E-002	0
1.307539966968616E+002	8.9846700E-003	-1.4661406E-002	0
1.407539964442403E+002	9.1564599E-003	-1.2681829E-002	0
1.507539961916191E+002	9.0610208E-003	-1.1220044E-002	0
1.607539959389978E+002	9.0801083E-003	-1.0189543E-002	0
1.707539956863766E+002	9.0228450E-003	-9.1335988E-003	0
1.807539954337553E+002	9.1755474E-003	-8.3518177E-003	0
1.907539951811341E+002	8.9655817E-003	-7.9777846E-003	0
2.007539949285128E+002	9.0037575E-003	-7.1648336E-003	0
2.107539946758916E+002	9.0419333E-003	-6.7647197E-003	0
2.207539944232703E+002	9.0419333E-003	-6.2628281E-003	0
2.307539941706491E+002	8.9846700E-003	-5.9002452E-003	0
2.407539939180278E+002	9.0228450E-003	-5.5522914E-003	0
2.507539936654066E+002	9.0801083E-003	-5.2495026E-003	0
2.607539934127853E+002	9.0037575E-003	-4.9543469E-003	0
2.707539931601641E+002	8.9464942E-003	-6.4848312E-003	0
2.807539929075429E+002	9.0610208E-003	-4.6929051E-003	0
2.907539926549216E+002	8.9083184E-003	-4.4642547E-003	0
3.007539924023004E+002	9.0228450E-003	-4.2604622E-003	0
3.107539921496791E+002	9.0801083E-003	-4.5141373E-003	0
3.207539918970579E+002	9.0037575E-003	-3.9435429E-003	0
3.307539916444366E+002	9.0991966E-003	-3.8173096E-003	0
3.407539913918154E+002	9.0037575E-003	-3.7692089E-003	0
3.507539911391941E+002	9.0419333E-003	-3.5627442E-003	0
3.607539908865729E+002	9.0228450E-003	-3.4694688E-003	0
3.707539906339516E+002	8.9464942E-003	-3.4091517E-003	0
3.807539903813304E+002	9.0610208E-003	-3.2985706E-003	0
3.907539901287091E+002	9.0037575E-003	-3.3631504E-003	0
4.007539898760879E+002	9.0801083E-003	-3.0721275E-003	0
4.107539896234666E+002	9.1373716E-003	-3.0620745E-003	0
4.207539893708454E+002	8.9274067E-003	-2.9594463E-003	0
4.307539891182241E+002	8.9655817E-003	-2.8942940E-003	0
4.407539888656029E+002	8.9464942E-003	-2.8744428E-003	0
4.507539886129816E+002	9.0228450E-003	-2.8384307E-003	0
4.607539883603604E+002	9.0991966E-003	-2.7185599E-003	0
4.707539881077391E+002	9.0610208E-003	-2.6345744E-003	0
4.807539878551179E+002	9.0419333E-003	-2.6040981E-003	0
4.907539876024966E+002	9.0419333E-003	-2.5089139E-003	0
5.007539873498754E+002	9.0419333E-003	-2.4955526E-003	0
5.107539870972541E+002	9.0228450E-003	-2.4315454E-003	0
5.207539868446329E+002	9.1182841E-003	-2.3607938E-003	0
5.307539865920116E+002	9.0037575E-003	-2.3502319E-003	0
5.407539863393904E+002	9.0228450E-003	-2.3695105E-003	0
5.507539860867691E+002	9.0228450E-003	-2.2942415E-003	0
5.607539858341479E+002	9.0419333E-003	-2.2528849E-003	0
5.707539855815266E+002	9.0610208E-003	-2.4751287E-003	0
5.807539853289054E+002	9.0419333E-003	-2.2001392E-003	0
5.907539850762842E+002	8.9655817E-003	-2.3085573E-003	0
6.007539848236629E+002	9.0228450E-003	-2.1380407E-003	0
6.107539845710417E+002	9.0228450E-003	-2.0829409E-003	0
6.207539843184204E+002	9.0610208E-003	-2.1073730E-003	0
6.307539840657992E+002	8.9846700E-003	-2.0827500E-003	0
6.407539838131779E+002	9.0801083E-003	-1.9381290E-003	0
6.507539835605567E+002	9.1373716E-003	-1.9607162E-003	0
6.607539833079354E+002	9.0419333E-003	-1.9315121E-003	0
6.707539830553142E+002	9.0991966E-003	-1.8938456E-003	0
6.807539828026929E+002	9.0991966E-003	-1.8804843E-003	0
6.907539825500717E+002	9.0419333E-003	-1.8724673E-003	0
7.007539822974504E+002	9.0037575E-003	-1.8002525E-003	0
7.107539820448292E+002	9.1373716E-003	-1.8120233E-003	0
7.207539817922079E+002	9.0419333E-003	-1.7706667E-003	0
7.307539815395867E+002	8.9846700E-003	-1.7696486E-003	0
7.407539812869654E+002	9.1946358E-003	-1.7265106E-003	0
7.507539810343442E+002	9.0228450E-003	-1.7160758E-003	0
7.607539807817229E+002	9.0801083E-003	-1.7048777E-003	0
7.707539805291017E+002	8.9846700E-003	-1.6798729E-003	0
7.807539802764804E+002	9.0610208E-003	-1.6652391E-003	0
7.907539800238592E+002	9.1182841E-003	-1.6300541E-003	0
8.007539797712379E+002	9.0419333E-003	-1.6651119E-003	0
8.107539795186167E+002	9.0037575E-003	-1.7223749E-003	0
8.207539792659954E+002	9.0801083E-003	-1.6329173E-003	0
8.307539790133742E+002	9.0228450E-003	-1.5811260E-003	0
8.407539787607529E+002	9.0037575E-003	-1.5729184E-003	0
8.507539785081317E+002	9.0801083E-003	-1.9911928E-003	0
8.607539782555104E+002	8.9846700E-003	-1.5240541E-003	0
8.707539780028892E+002	9.0419333E-003	-1.5474046E-003	0
8.807539777502680E+002	9.0419333E-003	-1.5167370E-003	0
8.907539774976467E+002	9.0610208E-003	-1.5453049E-003	0
9.007539772450255E+002	9.0037575E-003	-1.5187095E-003	0
9.107539769924042E+002	8.9846700E-003	-1.4723265E-003	0
9.207539767397830E+002	9.1373716E-003	-1.4667910E-003	0
9.307539764871617E+002	9.0419333E-003	-1.5112653E-003	0
9.407539762345405E+002	9.0610208E-003	-1.4172903E-003	0
9.507539759819192E+002	8.9846700E-003	-1.4581379E-003	0
9.607539757292980E+002	9.0037575E-003	-1.6913892E-003	0
9.707539754766767E+002	9.0610208E-003	-1.8311110E-003	0
9.807539752240555E+002	9.0801083E-003	-1.4720083E-003	0
9.907539749714342E+002	9.0419333E-003	-1.4431224E-003	0
1.000753974718813E+003	9.0037575E-003	-1.3773971E-003	0
1.010753974466192E+003	9.0610208E-003	-1.3337500E-003	0
1.020753974213570E+003	9.0037575E-003	-1.3627632E-003	0
1.030753973960949E+003	9.0037575E-003	-1.4078738E-003	0
1.040753973708328E+003	9.1564599E-003	-1.3520742E-003	0
1.050753973455707E+003	8.9464942E-003	-1.3523923E-003	0
1.060753973203085E+003	9.0228450E-003	-1.3380765E-003	0
1.070753972950464E+003	9.0228450E-003	-1.2962109E-003	0
1.080753972697843E+003	9.0228450E-003	-1.3077907E-003	0
1.090753972445222E+003	9.0419333E-003	-1.2458195E-003	0
1.100753972192600E+003	9.0419333E-003	-1.2572084E-003	0
1.110753971939979E+003	9.0419333E-003	-1.3016191E-003	0
1.120753971687358E+003	9.0228450E-003	-1.2364665E-003	0
1.130753971434737E+003	8.9846700E-003	-1.2652888E-003	0
1.140753971182115E+003	9.1182841E-003	-1.2070079E-003	0
1.150753970929494E+003	9.0991966E-003	-1.3717980E-003	0
1.160753970676873E+003	9.0228450E-003	-1.1820666E-003	0
1.170753970424252E+003	9.0419333E-003	-1.1886201E-003	0
1.180753970171631E+003	9.0991966E-003	-1.1727774E-003	0
1.190753969919009E+003	9.0610208E-003	-1.1802216E-003	0
1.200753969666388E+003	9.0610208E-003	-1.2049084E-003	0
1.210753969413767E+003	9.1946358E-003	-1.2825950E-003	0
1.220753969161146E+003	9.0991966E-003	-1.2268592E-003	0
1.230753968908524E+003	8.9464942E-003	-1.1468182E-003	0
1.240753968655903E+003	9.0801083E-003	-1.2301676E-003	0
1.250753968403282E+003	9.0419333E-003	-1.1160233E-003	0
1.260753968150661E+003	9.0037575E-003	-1.1438914E-003	0
1.270753967898039E+003	9.0419333E-003	-1.2582900E-003	0
1.280753967645418E+003	9.1946358E-003	-1.0756848E-003	0
1.290753967392797E+003	9.0419333E-003	-1.1144964E-003	0
1.300753967140176E+003	9.0419333E-003	-1.0651229E-003	0
1.310753966887554E+003	9.0228450E-003	-1.1371471E-003	0
1.320753966634933E+003	9.0419333E-003	-1.1266489E-003	0
1.330753966382312E+003	9.1564599E-003	-1.0754303E-003	0
1.340753966129691E+003	8.9274067E-003	-1.0955359E-003	0
1.350753965877069E+003	9.0419333E-003	-1.0721853E-003	0
1.360753965624448E+003	9.0419333E-003	-1.0679861E-003	0
1.370753965371827E+003	9.0419333E-003	-1.0292381E-003	0
1.380753965119206E+003	9.0419333E-003	-1.0143497E-003	0
1.390753964866584E+003	9.0610208E-003	-1.0313378E-003	0
1.400753964613963E+003	9.1373716E-003	-1.0130772E-003	0
1.410753964361342E+003	9.0610208E-003	-1.0312741E-003	0
1.420753964108721E+003	8.9274067E-003	-1.1520990E-003	0
1.430753963856099E+003	9.0228450E-003	-1.0270748E-003	0
1.440753963603478E+003	8.9655817E-003	-1.0296835E-003	0
1.450753963350857E+003	9.0419333E-003	-1.0554518E-003	0
1.460753963098236E+003	9.0610208E-003	-9.9036284E-004	0
1.470753962845614E+003	8.9655817E-003	-9.7789231E-004	0
1.480753962592993E+003	9.0991966E-003	-9.9876139E-004	0
1.490753962340372E+003	9.0419333E-003	-1.0345189E-003	0
1.500753962087751E+003	9.0610208E-003	-9.8031003E-004	0
1.510753961835129E+003	9.0610208E-003	-1.0554518E-003	0
1.520753961582508E+003	8.9464942E-003	-9.6911198E-004	0
1.530753961329887E+003	9.0228450E-003	-9.8870858E-004	0
1.540753961077266E+003	9.0610208E-003	-1.0418360E-003	0
1.550753960824644E+003	9.1755474E-003	-1.1427461E-003	0
1.560753960572023E+003	9.0228450E-003	-9.1751158E-004	0
1.570753960319402E+003	8.9655817E-003	-9.5346005E-004	0
1.580753960066781E+003	9.0801083E-003	-9.3621755E-004	0
1.590753959814159E+003	8.9655817E-003	-1.0260568E-003	0
1.600753959561538E+003	9.0419333E-003	-1.0532886E-003	0
1.610753959308917E+003	9.1564599E-003	-1.0317832E-003	0
1.620753959056296E+003	9.0419333E-003	-9.3551760E-004	0
1.630753958803674E+003	9.0419333E-003	-9.7490184E-004	0
1.640753958551053E+003	8.9655817E-003	-9.6033164E-004	0
1.650753958298432E+003	8.9464942E-003	-8.9263398E-004	0
1.660753958045811E+003	9.0037575E-003	-8.8932546E-004	0
1.670753957793189E+003	8.9655817E-003	-9.9208078E-004	0
1.680753957540568E+003	9.0610208E-003	-9.1623911E-004	0
1.690753957287947E+003	8.9846700E-003	-8.8060874E-004	0
1.700753957035326E+003	9.0419333E-003	-1.1162142E-003	0
1.710753956782704E+003	9.0228450E-003	-8.6196652E-004	0
1.720753956530083E+003	9.0037575E-003	-8.7430980E-004	0
1.730753956277462E+003	9.0419333E-003	-8.5083197E-004	0
1.740753956024841E+003	9.0610208E-003	-8.4930495E-004	0
1.750753955772219E+003	9.0419333E-003	-8.9320663E-004	0
1.760753955519598E+003	9.0801083E-003	-8.7252836E-004	0
1.770753955266977E+003	9.0228450E-003	-8.6489331E-004	0
1.780753955014356E+003	9.0419333E-003	-8.7844557E-004	0
1.790753954761734E+003	9.1182841E-003	-8.3040819E-004	0
1.800753954509113E+003	9.0228450E-003	-8.4644178E-004	0
1.810753954256492E+003	8.9655817E-003	-8.1590156E-004	0
1.820753954003871E+003	9.0228450E-003	-8.5897610E-004	0
1.830753953751249E+003	9.0610208E-003	-8.8633504E-004	0
1.840753953498628E+003	9.0991966E-003	-8.3689799E-004	0
1.850753953246007E+003	9.0228450E-003	-8.4109727E-004	0
1.860753952993386E+003	9.1373716E-003	-8.3295320E-004	0
1.870753952740764E+003	9.1182841E-003	-8.2468189E-004	0
1.880753952488143E+003	9.0228450E-003	-8.1831933E-004	0
1.890753952235522E+003	9.1373716E-003	-7.9585949E-004	0
1.900753951982901E+003	9.0991966E-003	-8.1437454E-004	0
1.910753951730279E+003	9.0801083E-003	-8.7284640E-004	0
1.920753951477658E+003	9.0228450E-003	-8.5604930E-004	0
1.930753951225037E+003	9.0610208E-003	-8.0171309E-004	0
1.940753950972416E+003	9.1373716E-003	-8.0985716E-004	0
1.950753950719794E+003	9.0419333E-003	-8.0177665E-004	0
1.960753950467173E+003	9.1373716E-003	-7.7543571E-004	0
1.970753950214552E+003	8.9655817E-003	-7.9821370E-004	0
1.980753949961931E+003	9.0419333E-003	-7.4540445E-004	0
1.990753949709309E+003	9.1373716E-003	-8.2856306E-004	0
2.000753949456688E+003	9.0228450E-003	-7.8542490E-004	0
2.010753949204067E+003	9.0801083E-003	-7.7912601E-004	0
2.020753948951446E+003	8.9655817E-003	-8.1144780E-004	0
2.030753948698824E+003	9.0801083E-003	-7.8727002E-004	0
2.040753948446203E+003	9.0228450E-003	-7.6576468E-004	0
2.050753948193582E+003	9.0610208E-003	-7.7613565E-004	0
2.060753947940961E+003	8.9274067E-003	-7.9153298E-004	0
2.070753947688339E+003	9.0991966E-003	-8.1329298E-004	0
2.080753947435718E+003	9.0037575E-003	-8.3766150E-004	0
2.090753947183097E+003	9.0801083E-003	-9.8317314E-004	0
2.100753946930476E+003	9.0610208E-003	-8.0578512E-004	0
2.110753946677854E+003	9.0419333E-003	-7.7766267E-004	0
2.120753946425233E+003	9.0419333E-003	-7.6156540E-004	0
2.130753946172612E+003	9.0801083E-003	-7.2504435E-004	0
2.140753945919991E+003	9.0610208E-003	-7.4031443E-004	0
2.150753945667369E+003	9.1373716E-003	-7.6608278E-004	0
2.160753945414748E+003	9.1373716E-003	-7.2269019E-004	0
2.170753945162127E+003	9.0228450E-003	-7.6589192E-004	0
2.180753944909506E+003	9.0610208E-003	-7.2708033E-004	0
2.190753944656884E+003	9.0228450E-003	-7.7613565E-004	0
2.200753944404263E+003	9.1564599E-003	-7.1034674E-004	0
2.210753944151642E+003	8.9846700E-003	-7.0964696E-004	0
2.220753943899021E+003	9.0610208E-003	-7.1639125E-004	0
2.230753943646399E+003	9.1182841E-003	-6.9507665E-004	0
2.240753943393778E+003	9.1182841E-003	-6.9348601E-004	0
2.250753943141157E+003	8.9655817E-003	-7.0716557E-004	0
2.260753942888536E+003	9.0991966E-003	-7.1270094E-004	0
2.270753942635914E+003	9.0419333E-003	-7.0054852E-004	0
2.280753942383293E+003	9.0801083E-003	-6.6339114E-004	0
2.290753942130672E+003	9.0419333E-003	-7.0112105E-004	0
2.300753941878051E+003	9.0991966E-003	-7.0754724E-004	0
2.310753941625429E+003	9.0037575E-003	-6.8725069E-004	0
2.320753941372808E+003	9.0991966E-003	-7.1410066E-004	0
2.330753941120187E+003	9.0610208E-003	-7.5189432E-004	0
2.340753940867566E+003	9.0991966E-003	-7.6894590E-004	0
2.350753940614944E+003	9.0610208E-003	-6.9323153E-004	0
2.360753940362323E+003	9.0991966E-003	-6.9291343E-004	0
2.370753940109702E+003	9.0228450E-003	-8.0642133E-004	0
2.380753939857081E+003	9.0037575E-003	-6.9692178E-004	0
2.390753939604459E+003	9.1182841E-003	-6.6829030E-004	0
2.400753939351838E+003	9.0228450E-003	-6.6771772E-004	0
2.410753939099217E+003	8.9846700E-003	-6.7433476E-004	0
2.420753938846596E+003	9.1182841E-003	-6.3425064E-004	0
2.430753938593974E+003	9.0991966E-003	-6.5811025E-004	0
2.440753938341353E+003	9.0419333E-003	-6.5874652E-004	0
2.450753938088732E+003	9.0610208E-003	-6.6720869E-004	0
2.460753937836111E+003	9.0610208E-003	-6.3495047E-004	0
2.470753937583489E+003	9.0419333E-003	-6.9354963E-004	0
2.480753937330868E+003	9.0610208E-003	-6.6988094E-004	0
2.490753937078247E+003	9.1564599E-003	-6.5416546E-004	0
2.500753936825626E+003	9.0801083E-003	-6.4633950E-004	0
2.510753936573004E+003	9.0228450E-003	-6.7745236E-004	0
2.520753936320383E+003	9.1755474E-003	-6.5900094E-004	0
2.530753936067762E+003	9.0419333E-003	-6.5219309E-004	0
2.540753935815141E+003	9.0610208E-003	-6.3832273E-004	0
2.550753935562519E+003	9.0610208E-003	-6.1618100E-004	0
2.560753935309898E+003	9.0610208E-003	-6.4761203E-004	0
2.570753935057277E+003	9.0991966E-003	-6.2222540E-004	0
2.580753934804656E+003	9.0228450E-003	-6.3011498E-004	0
2.590753934552034E+003	9.0801083E-003	-6.1637186E-004	0
2.600753934299413E+003	9.0228450E-003	-6.2852440E-004	0
2.610753934046792E+003	9.0419333E-003	-6.0975482E-004	0
2.620753933794171E+003	9.0037575E-003	-6.0676440E-004	0
2.630753933541549E+003	9.0228450E-003	-6.4710301E-004	0
2.640753933288928E+003	9.0228450E-003	-6.0173799E-004	0
2.650753933036307E+003	8.9464942E-003	-6.2737905E-004	0
2.660753932783686E+003	8.9655817E-003	-6.1910774E-004	0
2.670753932531064E+003	9.0610208E-003	-6.2858796E-004	0
2.680753932278443E+003	9.0419333E-003	-6.4780290E-004	0
2.690753932025822E+003	9.0991966E-003	-1.0684951E-003	0
2.700753931773201E+003	9.1182841E-003	-6.1369961E-004	0
2.710753931520580E+003	9.1182841E-003	-6.1548111E-004	0
2.720753931267958E+003	9.0801083E-003	-5.9130340E-004	0
2.730753931015337E+003	9.0228450E-003	-5.9213053E-004	0
2.740753930762716E+003	9.0991966E-003	-5.9556629E-004	0
2.750753930510095E+003	9.1373716E-003	-5.7775114E-004	0
2.760753930257473E+003	9.0228450E-003	-5.8023259E-004	0
2.770753930004852E+003	8.9655817E-003	-5.7355186E-004	0
2.780753929752231E+003	9.1564599E-003	-5.7450630E-004	0
2.790753929499610E+003	9.1946358E-003	-6.1255432E-004	0
2.800753929246988E+003	9.0419333E-003	-5.8258674E-004	0
2.810753928994367E+003	9.0610208E-003	-6.9437677E-004	0
2.820753928741746E+003	9.0037575E-003	-6.1834423E-004	0
2.830753928489125E+003	9.0610208E-003	-5.8894925E-004	0
2.840753928236503E+003	9.0991966E-003	-6.1013660E-004	0
2.850753927983882E+003	9.0610208E-003	-5.6763471E-004	0
2.860753927731261E+003	8.9846700E-003	-5.6273554E-004	0
2.870753927478640E+003	8.9846700E-003	-5.9601170E-004	0
2.880753927226018E+003	9.0610208E-003	-5.6050863E-004	0
2.890753926973397E+003	9.0037575E-003	-6.0670078E-004	0
2.900753926720776E+003	9.0610208E-003	-6.5346557E-004	0
2.910753926468155E+003	9.0801083E-003	-5.8589521E-004	0
2.920753926215533E+003	9.0991966E-003	-5.8697688E-004	0
2.930753925962912E+003	9.0037575E-003	-5.7736941E-004	0
2.940753925710291E+003	9.0801083E-003	-5.7794206E-004	0
2.950753925457670E+003	9.0419333E-003	-6.0173799E-004	0
2.960753925205048E+003	9.0037575E-003	-5.7285198E-004	0
2.970753924952427E+003	9.0037575E-003	-5.9932022E-004	0
2.980753924699806E+003	9.0801083E-003	-5.8557710E-004	0
2.990753924447185E+003	8.9655817E-003	-5.6451705E-004	0
3.000753924194563E+003	9.0037575E-003	-5.4867426E-004	0
3.010753923941942E+003	8.9846700E-003	-5.7215209E-004	0
3.020753923689321E+003	9.0801083E-003	-5.3690356E-004	0
3.030753923436700E+003	8.9846700E-003	-5.3798518E-004	0
3.040753923184078E+003	9.0037575E-003	-5.5255543E-004	0
3.050753922931457E+003	8.9464942E-003	-5.5573671E-004	0
3.060753922678836E+003	9.1373716E-003	-5.4778357E-004	0
3.070753922426215E+003	9.0037575E-003	-5.5325532E-004	0
3.080753922173593E+003	9.0037575E-003	-5.4065743E-004	0
3.090753921920972E+003	9.0419333E-003	-5.2996835E-004	0
3.100753921668351E+003	9.0610208E-003	-5.1355298E-004	0
3.110753921415730E+003	9.0419333E-003	-5.2373309E-004	0
3.120753921163108E+003	9.0801083E-003	-5.4352061E-004	0
3.130753920910487E+003	9.0228450E-003	-5.2774150E-004	0
3.140753920657866E+003	9.1755474E-003	-5.3117727E-004	0
3.150753920405245E+003	9.0419333E-003	-5.4956501E-004	0
3.160753920152623E+003	9.0991966E-003	-5.4065743E-004	0
3.170753919900002E+003	9.1373716E-003	-5.2532373E-004	0
3.180753919647381E+003	9.0991966E-003	-7.4661337E-004	0
3.190753919394760E+003	9.0419333E-003	-7.0525677E-004	0
3.200753919142138E+003	9.0037575E-003	-5.5929972E-004	0
3.210753918889517E+003	8.9846700E-003	-7.6150172E-004	0
3.220753918636896E+003	9.1564599E-003	-5.8016891E-004	0
3.230753918384275E+003	9.0228450E-003	-5.2296958E-004	0
3.240753918131653E+003	9.0610208E-003	-5.3238613E-004	0
3.250753917879032E+003	9.0801083E-003	-5.0553615E-004	0
3.260753917626411E+003	9.1182841E-003	-4.7595022E-004	0
3.270753917373790E+003	9.1755474E-003	-5.0820841E-004	0
3.280753917121168E+003	9.0610208E-003	-6.1185443E-004	0
3.290753916868547E+003	9.0610208E-003	-5.1310757E-004	0
3.300753916615926E+003	9.0801083E-003	-4.8778459E-004	0
3.310753916363305E+003	8.9083184E-003	-5.1495276E-004	0
3.320753916110683E+003	9.0991966E-003	-4.9268379E-004	0
3.330753915858062E+003	9.0419333E-003	-4.9866457E-004	0
3.340753915605441E+003	9.0419333E-003	-4.8307629E-004	0
3.350753915352820E+003	9.0801083E-003	-4.9370178E-004	0
3.360753915100198E+003	8.9846700E-003	-5.3480390E-004	0
3.370753914847577E+003	9.1373716E-003	-5.8494083E-004	0
3.380753914594956E+003	9.0801083E-003	-5.4256624E-004	0
3.390753914342335E+003	9.0610208E-003	-4.9605593E-004	0
3.400753914089713E+003	9.0801083E-003	-4.8543047E-004	0
3.410753913837092E+003	9.0419333E-003	-5.4542936E-004	0
3.420753913584471E+003	9.0228450E-003	-4.9090222E-004	0
3.430753913331850E+003	9.1946358E-003	-4.8504872E-004	0
3.440753913079228E+003	9.0037575E-003	-4.8918440E-004	0
3.450753912826607E+003	9.0610208E-003	-4.8027679E-004	0
3.460753912573986E+003	9.0228450E-003	-4.8721195E-004	0
3.470753912321365E+003	9.0419333E-003	-4.9541966E-004	0
3.480753912068743E+003	9.0419333E-003	-5.2996835E-004	0
3.490753911816122E+003	9.0419333E-003	-5.3225888E-004	0
3.500753911563501E+003	9.1182841E-003	-5.0216395E-004	0
3.510753911310880E+003	9.0991966E-003	-4.8313994E-004	0
3.520753911058258E+003	9.1182841E-003	-4.8466696E-004	0
3.530753910805637E+003	9.0037575E-003	-4.7385058E-004	0
3.540753910553016E+003	9.0991966E-003	-4.7894064E-004	0
3.550753910300395E+003	9.1755474E-003	-4.6405228E-004	0
3.560753910047773E+003	9.0801083E-003	-4.6328880E-004	0
3.570753909795152E+003	9.1373716E-003	-4.9185666E-004	0
3.580753909542531E+003	9.0991966E-003	-4.7773175E-004	0
3.590753909289910E+003	9.0801083E-003	-5.8010529E-004	0
3.600753909037288E+003	9.0610208E-003	-4.8129479E-004	0
3.610753908784667E+003	9.0419333E-003	-4.8905716E-004	0
3.620753908532046E+003	9.0037575E-003	-4.7544122E-004	0
3.630753908279425E+003	9.0228450E-003	-5.0000072E-004	0
3.640753908026803E+003	9.0419333E-003	-4.7760451E-004	0
3.650753907774182E+003	9.1373716E-003	-4.7677735E-004	0
3.660753907521561E+003	9.1373716E-003	-5.0719042E-004	0
3.670753907268940E+003	9.0991966E-003	-5.1711599E-004	0
3.680753907016318E+003	9.0610208E-003	-4.6557927E-004	0
3.690753906763697E+003	9.0419333E-003	-4.6131635E-004	0
3.700753906511076E+003	9.0991966E-003	-4.7665017E-004	0
3.710753906258455E+003	9.1373716E-003	-4.5928036E-004	0
3.720753906005833E+003	9.0228450E-003	-4.7117833E-004	0
3.730753905753212E+003	9.1182841E-003	-4.5240880E-004	0
3.740753905500591E+003	8.9846700E-003	-4.5985298E-004	0
3.750753905247970E+003	9.1182841E-003	-4.5450844E-004	0
3.760753904995348E+003	9.0037575E-003	-4.3542078E-004	0
3.770753904742727E+003	9.0037575E-003	-4.3128512E-004	0
3.780753904490106E+003	9.0610208E-003	-4.2466802E-004	0
3.790753904237485E+003	8.9846700E-003	-4.5399941E-004	0
3.800753903984863E+003	9.0610208E-003	-4.3936554E-004	0
3.810753903732242E+003	9.0228450E-003	-4.6837880E-004	0
3.820753903479621E+003	9.0419333E-003	-4.4935476E-004	0
3.830753903227000E+003	9.0419333E-003	-6.2088930E-004	0
3.840753902974378E+003	8.9846700E-003	-4.4789136E-004	0
3.850753902721757E+003	9.0991966E-003	-4.9185666E-004	0
3.860753902469136E+003	8.9846700E-003	-4.5508108E-004	0
3.870753902216515E+003	9.0991966E-003	-4.4451922E-004	0
3.880753901963893E+003	9.0228450E-003	-4.5240880E-004	0
3.890753901711272E+003	8.9846700E-003	-4.3949281E-004	0
3.900753901458651E+003	9.0037575E-003	-4.5132716E-004	0
3.910753901206030E+003	9.0419333E-003	-5.3143175E-004	0
3.920753900953408E+003	9.0610208E-003	-4.5597178E-004	0
3.930753900700787E+003	9.0991966E-003	-4.5756245E-004	0
3.940753900448166E+003	9.1182841E-003	-4.4610989E-004	0
3.950753900195545E+003	9.0610208E-003	-4.4591899E-004	0
3.960753899942923E+003	8.9655817E-003	-4.1856000E-004	0
3.961292499929317E+003	8.9655817E-003	-3.8566557E-004	0
3.961292699929312E+003	9.1373716E-003	-3.9501855E-004	0