time/s	Ewe/V	I/mA	error	
4.400687888829125E+002	-1.7558774E-002	-9.7381914E-001	0
4.400689888829074E+002	-3.0547589E-002	-9.7990972E-001	0
4.400691888829024E+002	-3.4969762E-002	-9.7994167E-001	0
4.400693888828973E+002	-3.7680149E-002	-9.7993523E-001	0
4.400695888828923E+002	-3.9875183E-002	-9.7992253E-001	0
4.400697888828872E+002	-4.2051125E-002	-9.7995430E-001	0
4.400699888828822E+002	-4.3883502E-002	-9.7987789E-001	0
4.400701888828771E+002	-4.5773137E-002	-9.7999889E-001	0
4.400703888828721E+002	-4.7529161E-002	-9.7992253E-001	0
4.400705888828670E+002	-4.9037054E-002	-9.7989064E-001	0
4.400707888828620E+002	-5.0602205E-002	-9.7986525E-001	0
4.400709888828569E+002	-5.2186448E-002	-9.7994798E-001	0
4.400711888828519E+002	-5.3694338E-002	-9.7992891E-001	0
4.400713888828468E+002	-5.5144969E-002	-9.7993523E-001	0
4.400715888828418E+002	-5.6671947E-002	-9.7993523E-001	0
4.400717888828367E+002	-5.8122575E-002	-9.7996706E-001	0
4.400719888828316E+002	-5.9382334E-002	-9.7995430E-001	0
4.400721888828266E+002	-6.0680266E-002	-9.7993523E-001	0
4.400723888828215E+002	-6.2073633E-002	-9.7993523E-001	0
4.400725888828165E+002	-6.3390650E-002	-9.7996706E-001	0
4.400727888828114E+002	-6.4612232E-002	-9.8000526E-001	0
4.400729888828064E+002	-6.5852903E-002	-9.7999251E-001	0
4.400731888828013E+002	-6.7112662E-002	-9.7994798E-001	0
4.400733888827963E+002	-6.8391509E-002	-9.7992253E-001	0
4.400735888827912E+002	-6.9708526E-002	-9.7990972E-001	0
4.400737888827862E+002	-7.0815586E-002	-9.7994167E-001	0
4.400739888827811E+002	-7.2018079E-002	-9.7995430E-001	0
4.400741888827761E+002	-7.3144227E-002	-9.7991616E-001	0
4.400743888827710E+002	-7.4461244E-002	-9.7990972E-001	0
4.400745888827660E+002	-7.5587392E-002	-9.7988433E-001	0
4.400747888827609E+002	-7.6732628E-002	-9.7993523E-001	0
4.400749888827559E+002	-7.7801511E-002	-9.7990340E-001	0
4.400751888827508E+002	-7.9004005E-002	-9.7993523E-001	0
4.400753888827458E+002	-8.0053806E-002	-9.7997338E-001	0
4.400755888827407E+002	-8.1218123E-002	-9.7998613E-001	0
4.400759888827306E+002	-8.3432242E-002	-9.7996706E-001	0
4.400763888827205E+002	-8.5455492E-002	-9.7997981E-001	0
4.400765888827154E+002	-8.6467117E-002	-9.7993523E-001	0
4.400767888827104E+002	-8.7612346E-002	-9.7996074E-001	0
4.400771888827003E+002	-8.9673772E-002	-9.7993523E-001	0
4.400773888826952E+002	-9.0742655E-002	-9.7994167E-001	0
4.400775888826902E+002	-9.1754280E-002	-9.7989696E-001	0
4.400779888826801E+002	-9.3796611E-002	-9.7992253E-001	0
4.400783888826700E+002	-9.5724426E-002	-9.7997338E-001	0
4.400787888826599E+002	-9.7480446E-002	-9.7997981E-001	0
4.400789888826548E+002	-9.8511159E-002	-9.7992253E-001	0
4.400791888826498E+002	-9.9580042E-002	-9.7992891E-001	0
4.400795888826397E+002	-1.0125972E-001	-9.7997338E-001	0
4.400797888826346E+002	-1.0236678E-001	-9.7997981E-001	0
4.400801888826245E+002	-1.0404646E-001	-9.7991616E-001	0
4.400803888826194E+002	-1.0507717E-001	-9.7989064E-001	0
4.400807888826093E+002	-1.0675684E-001	-9.7993523E-001	0
4.400811888825992E+002	-1.0862739E-001	-9.7995430E-001	0
4.400815888825891E+002	-1.1036433E-001	-9.7995430E-001	0
4.400819888825790E+002	-1.1210126E-001	-9.7996706E-001	0
4.400823888825689E+002	-1.1381912E-001	-9.7989064E-001	0
4.400827888825588E+002	-1.1540336E-001	-9.7993523E-001	0
4.400831888825487E+002	-1.1725482E-001	-9.7999251E-001	0
4.400835888825386E+002	-1.1881997E-001	-9.7996074E-001	0
4.400839888825285E+002	-1.2038513E-001	-9.7994798E-001	0
4.400843888825184E+002	-1.2214115E-001	-9.7990972E-001	0
4.400847888825083E+002	-1.2361087E-001	-9.7999251E-001	0
4.400851888824982E+002	-1.2513785E-001	-9.7990340E-001	0
4.400855888824881E+002	-1.2674117E-001	-9.7997981E-001	0
4.400859888824780E+002	-1.2822998E-001	-9.7994167E-001	0
4.400863888824679E+002	-1.2971878E-001	-9.7994167E-001	0
4.400867888824578E+002	-1.3116941E-001	-9.7999251E-001	0
4.400871888824477E+002	-1.3273457E-001	-9.8001802E-001	0
4.400875888824376E+002	-1.3399433E-001	-9.7996074E-001	0
4.400879888824275E+002	-1.3555947E-001	-9.7995430E-001	0
4.400883888824173E+002	-1.3693376E-001	-9.7992253E-001	0
4.400887888824072E+002	-1.3830803E-001	-9.7995430E-001	0
4.400891888823971E+002	-1.3966323E-001	-9.7994798E-001	0
4.400895888823870E+002	-1.4119020E-001	-9.7994167E-001	0
4.400899888823769E+002	-1.4248814E-001	-9.7990972E-001	0
4.400903888823668E+002	-1.4378607E-001	-9.7993523E-001	0
4.400907888823567E+002	-1.4516035E-001	-9.7992891E-001	0
4.400911888823466E+002	-1.4642011E-001	-9.7997338E-001	0
4.400915888823365E+002	-1.4773713E-001	-9.7993523E-001	0
4.400919888823264E+002	-1.4892054E-001	-9.7995430E-001	0
4.400923888823163E+002	-1.5033299E-001	-9.8001158E-001	0
4.400927888823062E+002	-1.5144005E-001	-9.7999251E-001	0
4.400931888822961E+002	-1.5275706E-001	-9.7990340E-001	0
4.400935888822860E+002	-1.5405500E-001	-9.8001158E-001	0
4.400939888822759E+002	-1.5514298E-001	-9.7997338E-001	0
4.400943888822658E+002	-1.5645999E-001	-9.7990340E-001	0
4.400947888822557E+002	-1.5752888E-001	-9.7995430E-001	0
4.400951888822456E+002	-1.5880772E-001	-9.7989696E-001	0
4.400957888822304E+002	-1.6043013E-001	-9.7988433E-001	0
4.400961888822203E+002	-1.6165172E-001	-9.7999251E-001	0
4.400965888822102E+002	-1.6266334E-001	-9.7997981E-001	0
4.400969888822001E+002	-1.6390401E-001	-9.7993523E-001	0
4.400973888821900E+002	-1.6491564E-001	-9.7999889E-001	0
4.400977888821799E+002	-1.6592726E-001	-9.7992253E-001	0
4.400981888821698E+002	-1.6701522E-001	-9.7990340E-001	0
4.400985888821597E+002	-1.6823682E-001	-9.7989696E-001	0
4.400991888821445E+002	-1.6976379E-001	-9.7994798E-001	0
4.400997888821294E+002	-1.7119534E-001	-9.7987789E-001	0
4.401001888821193E+002	-1.7239784E-001	-9.7999889E-001	0
4.401007888821041E+002	-1.7371485E-001	-9.7994798E-001	0
4.401011888820940E+002	-1.7480282E-001	-9.8000526E-001	0
4.401017888820788E+002	-1.7632981E-001	-9.7996074E-001	0
4.401023888820637E+002	-1.7778043E-001	-9.7994167E-001	0
4.401029888820485E+002	-1.7925015E-001	-9.7996074E-001	0
4.401035888820334E+002	-1.8064351E-001	-9.7997338E-001	0
4.401041888820182E+002	-1.8199871E-001	-9.7992891E-001	0
4.401047888820030E+002	-1.8329664E-001	-9.7993523E-001	0
4.401051888819929E+002	-1.8434644E-001	-9.7993523E-001	0
4.401057888819778E+002	-1.8570164E-001	-9.7995430E-001	0
4.401063888819626E+002	-1.8686596E-001	-9.7991616E-001	0
4.401069888819475E+002	-1.8812571E-001	-9.7991616E-001	0
4.401075888819323E+002	-1.8953817E-001	-9.7992253E-001	0
4.401081888819172E+002	-1.9074066E-001	-9.7999251E-001	0
4.401087888819020E+002	-1.9198133E-001	-9.7994798E-001	0
4.401093888818868E+002	-1.9316474E-001	-9.7992891E-001	0
4.401099888818717E+002	-1.9442450E-001	-9.7994798E-001	0
4.401105888818565E+002	-1.9556974E-001	-9.7993523E-001	0
4.401111888818414E+002	-1.9671497E-001	-9.7994167E-001	0
4.401117888818262E+002	-1.9789837E-001	-9.7995430E-001	0
4.401123888818111E+002	-1.9908178E-001	-9.7994798E-001	0
4.401129888817959E+002	-2.0020793E-001	-9.7995430E-001	0
4.401135888817807E+002	-2.0125772E-001	-9.7990340E-001	0
4.401141888817656E+002	-2.0232661E-001	-9.8001158E-001	0
4.401147888817504E+002	-2.0337641E-001	-9.7998613E-001	0
4.401153888817353E+002	-2.0438804E-001	-9.7988433E-001	0
4.401161888817151E+002	-2.0597227E-001	-9.8000526E-001	0
4.401169888816949E+002	-2.0717476E-001	-9.7994798E-001	0
4.401177888816746E+002	-2.0866357E-001	-9.7994798E-001	0
4.401185888816544E+002	-2.0986606E-001	-9.7992253E-001	0
4.401191888816393E+002	-2.1091586E-001	-9.7997981E-001	0
4.401199888816191E+002	-2.1213745E-001	-9.7991616E-001	0
4.401207888815989E+002	-2.1335903E-001	-9.7997338E-001	0
4.401215888815786E+002	-2.1446609E-001	-9.7992891E-001	0
4.401223888815584E+002	-2.1576403E-001	-9.7996706E-001	0
4.401231888815382E+002	-2.1692835E-001	-9.7992253E-001	0
4.401239888815180E+002	-2.1811175E-001	-9.8001802E-001	0
4.401247888814978E+002	-2.1919973E-001	-9.7996706E-001	0
4.401255888814776E+002	-2.2026861E-001	-9.7989064E-001	0
4.401263888814574E+002	-2.2145201E-001	-9.7990972E-001	0
4.401271888814372E+002	-2.2252090E-001	-9.7997338E-001	0
4.401279888814170E+002	-2.2366613E-001	-9.7994167E-001	0
4.401289888813917E+002	-2.2484955E-001	-9.7990340E-001	0
4.401299888813664E+002	-2.2624291E-001	-9.7999889E-001	0
4.401309888813412E+002	-2.2738814E-001	-9.7992891E-001	0
4.401319888813159E+002	-2.2866699E-001	-9.8001158E-001	0
4.401329888812907E+002	-2.2979315E-001	-9.7996074E-001	0
4.401337888812704E+002	-2.3080476E-001	-9.7996706E-001	0
4.401349888812401E+002	-2.3215996E-001	-9.8000526E-001	0
4.401359888812149E+002	-2.3317158E-001	-9.7999251E-001	0
4.401369888811896E+002	-2.3427863E-001	-9.7995430E-001	0
4.401381888811593E+002	-2.3561475E-001	-9.7997981E-001	0
4.401393888811290E+002	-2.3672180E-001	-9.7990972E-001	0
4.401403888811037E+002	-2.3775251E-001	-9.8002434E-001	0
4.401415888810734E+002	-2.3880231E-001	-9.7994798E-001	0
4.401427888810431E+002	-2.4002390E-001	-9.7990972E-001	0
4.401439888810128E+002	-2.4115004E-001	-9.7994167E-001	0
4.401451888809825E+002	-2.4229528E-001	-9.7993523E-001	0
4.401465888809471E+002	-2.4332599E-001	-9.7991616E-001	0
4.401475888809218E+002	-2.4435669E-001	-9.7997338E-001	0
4.401489888808865E+002	-2.4544467E-001	-9.7999889E-001	0
4.401501888808561E+002	-2.4645630E-001	-9.7994167E-001	0
4.401517888808157E+002	-2.4760152E-001	-9.7997981E-001	0
4.401531888807804E+002	-2.4874677E-001	-9.7999251E-001	0
4.401547888807399E+002	-2.4975838E-001	-9.7991616E-001	0
4.401561888807046E+002	-2.5080818E-001	-9.7996074E-001	0
4.401577888806642E+002	-2.5191525E-001	-9.7995430E-001	0
4.401595888806187E+002	-2.5298411E-001	-9.7989696E-001	0
4.401609888805833E+002	-2.5401482E-001	-9.7991616E-001	0
4.401631888805277E+002	-2.5529367E-001	-9.7997981E-001	0
4.401651888804772E+002	-2.5634348E-001	-9.7993523E-001	0
4.401673888804216E+002	-2.5758415E-001	-9.7989696E-001	0
4.401693888803711E+002	-2.5861484E-001	-9.7996074E-001	0
4.401717888803105E+002	-2.5970283E-001	-9.7996706E-001	0
4.401741888802499E+002	-2.6082897E-001	-9.7993523E-001	0
4.401767888801842E+002	-2.6187876E-001	-9.7993523E-001	0
4.401793888801185E+002	-2.6290947E-001	-9.7986525E-001	0
4.401819888800528E+002	-2.6397836E-001	-9.7994798E-001	0
4.401857888799568E+002	-2.6506633E-001	-9.7994167E-001	0
4.401895888798608E+002	-2.6613522E-001	-9.7995430E-001	0
4.401941888797446E+002	-2.6722321E-001	-9.7996074E-001	0
4.402017888795526E+002	-2.6829207E-001	-9.8000526E-001	0
4.402359888786887E+002	-2.6724228E-001	-9.7992253E-001	0
4.402443888784765E+002	-2.6619250E-001	-9.7996706E-001	0
4.402527888782643E+002	-2.6518086E-001	-9.7987789E-001	0
4.402595888780925E+002	-2.6415014E-001	-9.7996706E-001	0
4.402667888779106E+002	-2.6313853E-001	-9.7997338E-001	0
4.402733888777439E+002	-2.6212689E-001	-9.7992891E-001	0
4.402805888775620E+002	-2.6092440E-001	-9.7992253E-001	0
4.402881888773700E+002	-2.5987461E-001	-9.7995430E-001	0
4.402943888772134E+002	-2.5886297E-001	-9.7993523E-001	0
4.403015888770315E+002	-2.5785136E-001	-9.7996706E-001	0
4.403083888768597E+002	-2.5672522E-001	-9.7990340E-001	0
4.403153888766828E+002	-2.5571358E-001	-9.7994798E-001	0
4.403227888764959E+002	-2.5470197E-001	-9.7989696E-001	0
4.403293888763292E+002	-2.5363308E-001	-9.7989696E-001	0
4.403369888761372E+002	-2.5252602E-001	-9.7994167E-001	0
4.403447888759401E+002	-2.5139987E-001	-9.7983336E-001	0
4.403535888757178E+002	-2.5038826E-001	-9.7993523E-001	0
4.403611888755258E+002	-2.4937664E-001	-9.7992891E-001	0
4.403707888752833E+002	-2.4823141E-001	-9.7994798E-001	0
4.403811888750206E+002	-2.4718161E-001	-9.7992253E-001	0
4.403913888747629E+002	-2.4615090E-001	-9.8002434E-001	0
4.404025888744800E+002	-2.4512018E-001	-9.7993523E-001	0
4.404153888741566E+002	-2.4410856E-001	-9.7996706E-001	0
4.404301888737828E+002	-2.4302059E-001	-9.7988433E-001	0
4.404491888733028E+002	-2.4195170E-001	-9.7994798E-001	0
4.404687888728076E+002	-2.4090190E-001	-9.7993523E-001	0
4.404939888721710E+002	-2.3987120E-001	-9.7996074E-001	0
4.405273888713273E+002	-2.3884049E-001	-9.7992891E-001	0
4.405791888700187E+002	-2.3779069E-001	-9.7994167E-001	0
4.406871888672904E+002	-2.3677906E-001	-9.7997338E-001	0
4.413185888513399E+002	-2.3782887E-001	-9.7996706E-001	0
4.417691888399568E+002	-2.3887867E-001	-9.7997981E-001	0
4.424981888215407E+002	-2.3989029E-001	-9.7998613E-001	0
4.438681887869316E+002	-2.4094008E-001	-9.7999251E-001	0
4.459641887339822E+002	-2.4195170E-001	-9.7992253E-001	0
4.478409886865702E+002	-2.4296333E-001	-9.7992891E-001	0
4.495529886433214E+002	-2.4397495E-001	-9.7992891E-001	0
4.511571886027959E+002	-2.4500567E-001	-9.7992253E-001	0
4.528813885592390E+002	-2.4603638E-001	-9.8003709E-001	0
4.546149885154446E+002	-2.4704799E-001	-9.7996706E-001	0
4.565465884666482E+002	-2.4805962E-001	-9.7993523E-001	0
4.589247884065699E+002	-2.4907124E-001	-9.7994167E-001	0
4.616417883379327E+002	-2.5010195E-001	-9.8001158E-001	0
4.650817882510310E+002	-2.5113267E-001	-9.7993523E-001	0
4.700817881247203E+002	-2.5185797E-001	-9.7999251E-001	0
4.750817879984097E+002	-2.5248784E-001	-9.7998613E-001	0
4.800817878720991E+002	-2.5252602E-001	-9.8000526E-001	0
4.850817877457885E+002	-2.5183889E-001	-9.8003066E-001	0
4.900817876194778E+002	-2.5117084E-001	-9.8001158E-001	0
4.930321875449445E+002	-2.5015920E-001	-9.7997981E-001	0
4.972881874374289E+002	-2.4914759E-001	-9.7999889E-001	0
5.009419873451261E+002	-2.4813597E-001	-9.7996074E-001	0
5.033709872837644E+002	-2.4712434E-001	-9.7997338E-001	0
5.059545872184972E+002	-2.4611272E-001	-9.7996074E-001	0
5.091105871387699E+002	-2.4510109E-001	-9.7994798E-001	0
5.119041870681976E+002	-2.4408947E-001	-9.7992891E-001	0
5.148595869935380E+002	-2.4307786E-001	-9.7993523E-001	0
5.184645869024680E+002	-2.4206623E-001	-9.7998613E-001	0
5.216795868212503E+002	-2.4103552E-001	-9.7997338E-001	0
5.250413867363241E+002	-2.4000481E-001	-9.7999889E-001	0
5.280367866606539E+002	-2.3897409E-001	-9.7994167E-001	0
5.309533865869744E+002	-2.3796247E-001	-9.8007524E-001	0
5.343057865022856E+002	-2.3693177E-001	-9.7997981E-001	0
5.381235864058399E+002	-2.3592015E-001	-9.8001158E-001	0
5.420723863060848E+002	-2.3490852E-001	-9.7999251E-001	0
5.470723861797742E+002	-2.3429772E-001	-9.7998613E-001	0
5.520723860534636E+002	-2.3387781E-001	-9.7996074E-001	0
5.570723859271529E+002	-2.3362967E-001	-9.7998613E-001	0
5.620723858008423E+002	-2.3296162E-001	-9.7995430E-001	0
5.670723856745317E+002	-2.3328610E-001	-9.7992891E-001	0
5.720723855482211E+002	-2.3305705E-001	-9.8007524E-001	0
5.770723854219104E+002	-2.3301888E-001	-9.8000526E-001	0
5.804009853378229E+002	-2.3196909E-001	-9.7994167E-001	0
5.837161852540739E+002	-2.3095746E-001	-9.7991616E-001	0
5.851407852180855E+002	-2.2992675E-001	-9.7993523E-001	0
5.864673851845728E+002	-2.2891513E-001	-9.8001158E-001	0
5.910229850694886E+002	-2.2788441E-001	-9.7994167E-001	0
5.960229849431780E+002	-2.2826616E-001	-9.7999889E-001	0
5.994127848575445E+002	-2.2927779E-001	-9.8000526E-001	0
6.044127847312338E+002	-2.3021306E-001	-9.7999889E-001	0
6.079315846423415E+002	-2.3122469E-001	-9.7999251E-001	0
6.129315845160309E+002	-2.3193091E-001	-9.7994798E-001	0
6.138317844932899E+002	-2.3296162E-001	-9.8003709E-001	0
6.145823844743281E+002	-2.3401141E-001	-9.7994798E-001	0
6.154551844522794E+002	-2.3502304E-001	-9.7998613E-001	0
6.164021844283561E+002	-2.3395416E-001	-9.7994167E-001	0
6.180267843873153E+002	-2.3292345E-001	-9.7994798E-001	0
6.214847842999588E+002	-2.3395416E-001	-9.8000526E-001	0
6.243121842285327E+002	-2.3496579E-001	-9.8003709E-001	0
6.252867842039122E+002	-2.3395416E-001	-9.7998613E-001	0
6.264821841737139E+002	-2.3294254E-001	-9.7994798E-001	0
6.305101840719581E+002	-2.3397325E-001	-9.8000526E-001	0
6.316035840443365E+002	-2.3500395E-001	-9.7996706E-001	0
6.322369840283354E+002	-2.3601557E-001	-9.7996074E-001	0
6.333857839993143E+002	-2.3704629E-001	-9.7996074E-001	0
6.339981839838438E+002	-2.3807700E-001	-9.8003066E-001	0
6.342559839773312E+002	-2.3908862E-001	-9.7997981E-001	0
6.345019839711167E+002	-2.4013843E-001	-9.7998613E-001	0
6.347735839642555E+002	-2.4118821E-001	-9.7990972E-001	0
6.356467839421966E+002	-2.4219984E-001	-9.7993523E-001	0
6.360109839329962E+002	-2.4118821E-001	-9.8000526E-001	0
6.370309839072288E+002	-2.4011934E-001	-9.7994798E-001	0
6.398529838359391E+002	-2.4115004E-001	-9.7997981E-001	0
6.421827837770834E+002	-2.4011934E-001	-9.7999889E-001	0
6.427157837636187E+002	-2.3908862E-001	-9.8000526E-001	0
6.468701836586697E+002	-2.4011934E-001	-9.7992253E-001	0
6.491903836000565E+002	-2.4120730E-001	-9.7997981E-001	0
6.541903834737459E+002	-2.4128366E-001	-9.7999251E-001	0
6.549181834553601E+002	-2.4023385E-001	-9.7995430E-001	0
6.570625834011880E+002	-2.4124548E-001	-9.7997981E-001	0
6.577981833826052E+002	-2.4225710E-001	-9.7994167E-001	0
6.610791832997202E+002	-2.4118821E-001	-9.7996074E-001	0
6.618049832813849E+002	-2.4015750E-001	-9.7992891E-001	0
6.630907832489029E+002	-2.3914589E-001	-9.8000526E-001	0
6.658321831796493E+002	-2.4017659E-001	-9.8001802E-001	0
6.667191831572418E+002	-2.4118821E-001	-9.8003066E-001	0
6.674759831381234E+002	-2.4223801E-001	-9.8004979E-001	0
6.694603830879933E+002	-2.4120730E-001	-9.7996074E-001	0
6.701203830713202E+002	-2.4235255E-001	-9.7996706E-001	0
6.705737830598664E+002	-2.4336416E-001	-9.7999889E-001	0
6.708273830534599E+002	-2.4437578E-001	-9.8003066E-001	0
6.712423830429761E+002	-2.4542558E-001	-9.7999251E-001	0
6.720337830229837E+002	-2.4643721E-001	-9.7995430E-001	0
6.728991830011219E+002	-2.4744883E-001	-9.7989696E-001	0
6.732771829915728E+002	-2.4846046E-001	-9.7990972E-001	0
6.735183829854795E+002	-2.4949117E-001	-9.7993523E-001	0
6.737581829794217E+002	-2.5054094E-001	-9.7992891E-001	0
6.741629829691956E+002	-2.5157166E-001	-9.7997338E-001	0
6.745753829587775E+002	-2.5260237E-001	-9.8003066E-001	0
6.748997829505824E+002	-2.5361401E-001	-9.7996706E-001	0
6.754869829357485E+002	-2.5466380E-001	-9.8001158E-001	0
6.759555829239107E+002	-2.5567541E-001	-9.7997981E-001	0
6.765489829089202E+002	-2.5670612E-001	-9.7997981E-001	0
6.768233829019882E+002	-2.5771776E-001	-9.7996706E-001	0
6.770749828956323E+002	-2.5872937E-001	-9.7995430E-001	0
6.774665828857396E+002	-2.5974101E-001	-9.8001158E-001	0
6.778727828754782E+002	-2.6077172E-001	-9.8000526E-001	0
6.781123828694253E+002	-2.5976008E-001	-9.7999889E-001	0
6.786827828550158E+002	-2.5872937E-001	-9.7999251E-001	0
6.797953828269092E+002	-2.5976008E-001	-9.8000526E-001	0
6.799671828225692E+002	-2.6080990E-001	-9.7999889E-001	0
6.801569828177744E+002	-2.6184058E-001	-9.8002434E-001	0
6.803761828122369E+002	-2.6289040E-001	-9.7997338E-001	0
6.807597828025464E+002	-2.6395929E-001	-9.8000526E-001	0
6.810041827963723E+002	-2.6497090E-001	-9.7999889E-001	0
6.823847827614954E+002	-2.6395929E-001	-9.7996706E-001	0
6.827919827512087E+002	-2.6289040E-001	-9.7999889E-001	0
6.833619827368093E+002	-2.6187876E-001	-9.8004341E-001	0
6.836657827291347E+002	-2.6289040E-001	-9.7999889E-001	0
6.846393827045395E+002	-2.6187876E-001	-9.7997981E-001	0
6.848927826981380E+002	-2.6086715E-001	-9.8001802E-001	0
6.851007826928835E+002	-2.5985551E-001	-9.7997981E-001	0
6.853539826864871E+002	-2.5882483E-001	-9.8001158E-001	0
6.859197826721938E+002	-2.5773683E-001	-9.7999251E-001	0
6.861693826658884E+002	-2.5672522E-001	-9.8000526E-001	0
6.866383826540405E+002	-2.5571358E-001	-9.7994798E-001	0
6.875911826299707E+002	-2.5470197E-001	-9.7999889E-001	0
6.878445826235693E+002	-2.5363308E-001	-9.8001158E-001	0
6.883033826119790E+002	-2.5262147E-001	-9.8003709E-001	0
6.887227826013841E+002	-2.5151441E-001	-9.7999889E-001	0
6.889535825955536E+002	-2.5050277E-001	-9.7992891E-001	0
6.892839825872070E+002	-2.4947208E-001	-9.8004979E-001	0
6.896643825775973E+002	-2.4842228E-001	-9.7999251E-001	0
6.899739825697761E+002	-2.4739157E-001	-9.7995430E-001	0
6.905517825551797E+002	-2.4636085E-001	-9.7994167E-001	0
6.908553825475101E+002	-2.4531107E-001	-9.8000526E-001	0
6.911335825404822E+002	-2.4428035E-001	-9.8001158E-001	0
6.915257825305744E+002	-2.4323055E-001	-9.7994167E-001	0
6.928973824959248E+002	-2.4428035E-001	-9.8001158E-001	0
6.933775824837940E+002	-2.4529198E-001	-9.7999889E-001	0
6.936475824769732E+002	-2.4634176E-001	-9.8002434E-001	0
6.939133824702585E+002	-2.4739157E-001	-9.7999251E-001	0
6.942263824623515E+002	-2.4840319E-001	-9.7999251E-001	0
6.947657824487251E+002	-2.4941482E-001	-9.7998613E-001	0
6.949445824442082E+002	-2.5046462E-001	-9.7998613E-001	0
6.952285824370338E+002	-2.5149530E-001	-9.7999251E-001	0
6.954619824311376E+002	-2.5252602E-001	-9.7993523E-001	0
6.957675824234175E+002	-2.5353765E-001	-9.7999251E-001	0
6.961079824148183E+002	-2.5456837E-001	-9.8003066E-001	0
6.965367824039859E+002	-2.5559908E-001	-9.7999889E-001	0
6.970755823903746E+002	-2.5661069E-001	-9.7995430E-001	0
6.975099823794008E+002	-2.5557998E-001	-9.7999251E-001	0
6.980589823655318E+002	-2.5454926E-001	-9.7996706E-001	0
6.983131823591102E+002	-2.5353765E-001	-9.7998613E-001	0
6.986525823505363E+002	-2.5252602E-001	-9.7994167E-001	0
6.989087823440641E+002	-2.5149530E-001	-9.7998613E-001	0
6.990575823403051E+002	-2.5048369E-001	-9.7990972E-001	0
6.996287823258754E+002	-2.4945299E-001	-9.7997338E-001	0
7.006289823006082E+002	-2.4842228E-001	-9.7990972E-001	0
7.016519822747650E+002	-2.4741066E-001	-9.7997981E-001	0
7.022257822602696E+002	-2.4842228E-001	-9.7997338E-001	0
7.030665822390292E+002	-2.4741066E-001	-9.8001158E-001	0
7.047339821969072E+002	-2.4637994E-001	-9.7999889E-001	0
7.060047821648041E+002	-2.4536832E-001	-9.7993523E-001	0
7.067191821467568E+002	-2.4433760E-001	-9.8001802E-001	0
7.077555821205751E+002	-2.4538741E-001	-9.8001158E-001	0
7.099785820644174E+002	-2.4437578E-001	-9.8003066E-001	0
7.105601820497250E+002	-2.4540649E-001	-9.8001158E-001	0
7.119893820136203E+002	-2.4641812E-001	-9.7994798E-001	0
7.126155819978012E+002	-2.4540649E-001	-9.8000526E-001	0
7.148755819407088E+002	-2.4439487E-001	-9.7998613E-001	0
7.152583819310385E+002	-2.4338324E-001	-9.7997338E-001	0
7.156223819218430E+002	-2.4237162E-001	-9.8002434E-001	0
7.161127819094545E+002	-2.4132183E-001	-9.8001158E-001	0
7.168055818919529E+002	-2.4031021E-001	-9.8004341E-001	0
7.174021818768815E+002	-2.3927949E-001	-9.8001802E-001	0
7.184319818508666E+002	-2.3817244E-001	-9.7997981E-001	0
7.213001817784098E+002	-2.3712264E-001	-9.7994798E-001	0
7.216261817701743E+002	-2.3611102E-001	-9.8003066E-001	0
7.222283817549614E+002	-2.3714173E-001	-9.7995430E-001	0
7.227913817407389E+002	-2.3817244E-001	-9.7996706E-001	0
7.233049817277642E+002	-2.3918405E-001	-9.7999251E-001	0
7.235731817209889E+002	-2.4025294E-001	-9.7994167E-001	0
7.240109817099292E+002	-2.4132183E-001	-9.7997981E-001	0
7.243019817025779E+002	-2.4235255E-001	-9.7996706E-001	0
7.246035816949588E+002	-2.4340233E-001	-9.7993523E-001	0
7.263057816519577E+002	-2.4441396E-001	-9.7991616E-001	0
7.266227816439496E+002	-2.4544467E-001	-9.8003066E-001	0
7.268471816382807E+002	-2.4647538E-001	-9.7997338E-001	0
7.270645816327888E+002	-2.4750610E-001	-9.7997338E-001	0
7.273395816258417E+002	-2.4855588E-001	-9.7999889E-001	0
7.277271816160501E+002	-2.4956751E-001	-9.8003709E-001	0
7.281493816053844E+002	-2.5063640E-001	-9.7998613E-001	0
7.310327815325436E+002	-2.4962477E-001	-9.8001802E-001	0
7.332749814759009E+002	-2.4861315E-001	-9.7999251E-001	0
7.338063814624766E+002	-2.4754426E-001	-9.8004341E-001	0
7.349061814346933E+002	-2.4859406E-001	-9.8003709E-001	0
7.366131813915708E+002	-2.4758244E-001	-9.7996074E-001	0
7.397889813113434E+002	-2.4859406E-001	-9.7999251E-001	0
7.403419812973734E+002	-2.4964386E-001	-9.7998613E-001	0
7.409099812830245E+002	-2.5073183E-001	-9.7998613E-001	0
7.415147812677460E+002	-2.5174344E-001	-9.7994798E-001	0
7.418337812596874E+002	-2.5275508E-001	-9.7997338E-001	0
7.426797812383156E+002	-2.5376669E-001	-9.8002434E-001	0
7.431765812257654E+002	-2.5477833E-001	-9.7997981E-001	0
7.435391812166054E+002	-2.5580904E-001	-9.7991616E-001	0
7.437531812111993E+002	-2.5685883E-001	-9.7993523E-001	0
7.444553811934602E+002	-2.5787047E-001	-9.8003066E-001	0
7.446285811890848E+002	-2.5892025E-001	-9.8001802E-001	0
7.448469811835676E+002	-2.5993186E-001	-9.7999251E-001	0
7.450867811775097E+002	-2.6094350E-001	-9.7996074E-001	0
7.452549811732606E+002	-2.6199329E-001	-9.7997981E-001	0
7.453861811699462E+002	-2.6300493E-001	-9.8004341E-001	0
7.455505811657931E+002	-2.6405472E-001	-9.8004979E-001	0
7.457403811609984E+002	-2.6506633E-001	-9.7999889E-001	0
7.465335811409605E+002	-2.6607797E-001	-9.8004341E-001	0
7.466639811376663E+002	-2.6499000E-001	-9.7999889E-001	0
7.469873811294965E+002	-2.6392111E-001	-9.7996706E-001	0
7.470751811272785E+002	-2.6289040E-001	-9.7998613E-001	0
7.472197811236256E+002	-2.6185969E-001	-9.8004979E-001	0
7.473297811208467E+002	-2.6084805E-001	-9.7999889E-001	0
7.475937811141775E+002	-2.5983644E-001	-9.7995430E-001	0
7.480807811018749E+002	-2.5880572E-001	-9.7999889E-001	0
7.483507810950541E+002	-2.5775594E-001	-9.7997981E-001	0
7.489857810790127E+002	-2.5668705E-001	-9.7999889E-001	0
7.498397810574388E+002	-2.5769866E-001	-9.7996074E-001	0
7.503239810452069E+002	-2.5871029E-001	-9.7993523E-001	0
7.506325810374110E+002	-2.5972190E-001	-9.7996706E-001	0
7.507765810337733E+002	-2.6073354E-001	-9.8001802E-001	0
7.509755810287461E+002	-2.6174515E-001	-9.8001158E-001	0
7.511707810238149E+002	-2.6277587E-001	-9.7991616E-001	0
7.513239810199448E+002	-2.6384476E-001	-9.8001802E-001	0
7.515615810139425E+002	-2.6497090E-001	-9.7999889E-001	0
7.519765810034587E+002	-2.6598254E-001	-9.8001802E-001	0
7.533829809679301E+002	-2.6495183E-001	-9.7998613E-001	0
7.535003809649643E+002	-2.6394019E-001	-9.7997338E-001	0
7.536427809613670E+002	-2.6289040E-001	-9.8003066E-001	0
7.537427809588407E+002	-2.6174515E-001	-9.8002434E-001	0
7.539597809533589E+002	-2.6073354E-001	-9.7999889E-001	0
7.540943809499586E+002	-2.5972190E-001	-9.7996074E-001	0
7.544251809416019E+002	-2.5869119E-001	-9.7997338E-001	0
7.553643809178757E+002	-2.5766048E-001	-9.8003066E-001	0
7.558143809065077E+002	-2.5659162E-001	-9.8001158E-001	0
7.561751808973931E+002	-2.5556090E-001	-9.8004979E-001	0
7.566717808848480E+002	-2.5451109E-001	-9.7995430E-001	0
7.569553808776836E+002	-2.5349948E-001	-9.8002434E-001	0
7.571903808717470E+002	-2.5248784E-001	-9.8000526E-001	0
7.573661808673060E+002	-2.5141898E-001	-9.7998613E-001	0
7.578165808559279E+002	-2.5040734E-001	-9.7998613E-001	0
7.580175808508502E+002	-2.4939573E-001	-9.8001158E-001	0
7.591813808214501E+002	-2.5040734E-001	-9.8001158E-001	0
7.593987808159582E+002	-2.5151441E-001	-9.7997981E-001	0
7.597241808077379E+002	-2.5252602E-001	-9.8000526E-001	0
7.601281807975320E+002	-2.5355673E-001	-9.7994798E-001	0
7.604075807904737E+002	-2.5456837E-001	-9.8003066E-001	0
7.609157807776355E+002	-2.5557998E-001	-9.8001802E-001	0
7.611169807725528E+002	-2.5664887E-001	-9.8002434E-001	0
7.613181807674700E+002	-2.5767958E-001	-9.8001158E-001	0
7.617675807561172E+002	-2.5871029E-001	-9.7999889E-001	0
7.626617807335278E+002	-2.5758415E-001	-9.7996074E-001	0
7.627657807309006E+002	-2.5653434E-001	-9.7996706E-001	0
7.633737807155412E+002	-2.5756505E-001	-9.7996074E-001	0
7.635833807102463E+002	-2.5859576E-001	-9.8001158E-001	0
7.637345807064266E+002	-2.5960737E-001	-9.8002434E-001	0
7.639479807010357E+002	-2.5859576E-001	-9.7991616E-001	0
7.649003806769761E+002	-2.5758415E-001	-9.7996706E-001	0
7.656399806582922E+002	-2.5859576E-001	-9.8004979E-001	0
7.659021806516685E+002	-2.5966465E-001	-9.7997981E-001	0
7.660437806480913E+002	-2.6073354E-001	-9.8000526E-001	0
7.662107806438726E+002	-2.6176426E-001	-9.7999251E-001	0
7.669817806243955E+002	-2.6075262E-001	-9.8001802E-001	0
7.671799806193885E+002	-2.5974101E-001	-9.7994167E-001	0
7.678761806018010E+002	-2.6075262E-001	-9.7996706E-001	0
7.682179805931664E+002	-2.6176426E-001	-9.8001802E-001	0
7.683315805902967E+002	-2.6075262E-001	-9.7999251E-001	0
7.687931805786357E+002	-2.6176426E-001	-9.8004341E-001	0
7.689323805751192E+002	-2.6277587E-001	-9.7995430E-001	0
7.691701805691118E+002	-2.6378748E-001	-9.7999251E-001	0
7.692657805666968E+002	-2.6483729E-001	-9.8001802E-001	0
7.695657805591181E+002	-2.6588708E-001	-9.7997981E-001	0
7.697365805548034E+002	-2.6689872E-001	-9.8004979E-001	0
7.698579805517365E+002	-2.6794851E-001	-9.8000526E-001	0
7.699571805492305E+002	-2.6899830E-001	-9.8000526E-001	0
7.701017805455776E+002	-2.7004811E-001	-9.7990340E-001	0
7.702799805410759E+002	-2.7109790E-001	-9.8002434E-001	0
7.703701805387973E+002	-2.7214772E-001	-9.7994167E-001	0
7.705563805340935E+002	-2.7315933E-001	-9.8003709E-001	0
7.706207805324666E+002	-2.7420911E-001	-9.7999889E-001	0
7.707651805288187E+002	-2.7523983E-001	-9.7999889E-001	0
7.708217805273889E+002	-2.7628964E-001	-9.8007524E-001	0
7.710201805223769E+002	-2.7739668E-001	-9.7997981E-001	0
7.711575805189059E+002	-2.7840832E-001	-9.7998613E-001	0
7.713023805152479E+002	-2.7941993E-001	-9.8002434E-001	0
7.713885805130703E+002	-2.8045064E-001	-9.7999889E-001	0
7.715003805102460E+002	-2.8151953E-001	-9.8000526E-001	0
7.715611805087101E+002	-2.8258842E-001	-9.7996706E-001	0
7.716375805067801E+002	-2.8360003E-001	-9.8000526E-001	0
7.717405805041781E+002	-2.8461167E-001	-9.8002434E-001	0
7.718827805005858E+002	-2.8562328E-001	-9.7994798E-001	0
7.719921804978221E+002	-2.8667310E-001	-9.7995430E-001	0
7.720721804958011E+002	-2.8768471E-001	-9.7995430E-001	0
7.721177804946492E+002	-2.8875360E-001	-9.7997981E-001	0
7.721907804928051E+002	-2.8976521E-001	-9.7998613E-001	0
7.722847804904304E+002	-2.9081503E-001	-9.7997338E-001	0
7.723973804875859E+002	-2.9188389E-001	-9.7997981E-001	0
7.724473804863228E+002	-2.9297188E-001	-9.7993523E-001	0
7.725031804849132E+002	-2.9196024E-001	-9.7995430E-001	0
7.726257804818160E+002	-2.9301006E-001	-9.8002434E-001	0
7.727725804781076E+002	-2.9197934E-001	-9.7992253E-001	0
7.728315804766171E+002	-2.9304823E-001	-9.8002434E-001	0
7.729435804737877E+002	-2.9194117E-001	-9.8003709E-001	0
7.731437804687303E+002	-2.9301006E-001	-9.7999889E-001	0
7.731829804677400E+002	-2.9199842E-001	-9.7999889E-001	0
7.733065804646176E+002	-2.9302913E-001	-9.7999251E-001	0
7.733683804630564E+002	-2.9201752E-001	-9.8003709E-001	0
7.733957804623642E+002	-2.9304823E-001	-9.7999251E-001	0
7.735767804577918E+002	-2.9411709E-001	-9.7998613E-001	0
7.736565804557758E+002	-2.9308641E-001	-9.7999251E-001	0
7.737365804537549E+002	-2.9409802E-001	-9.8001802E-001	0
7.738761804502283E+002	-2.9516691E-001	-9.7997338E-001	0
7.738891804498999E+002	-2.9411709E-001	-9.8000526E-001	0
7.744811804349447E+002	-2.9516691E-001	-9.8001158E-001	0
7.746033804318577E+002	-2.9402167E-001	-9.8003066E-001	0
7.746389804309583E+002	-2.9503331E-001	-9.7993523E-001	0
7.747189804289374E+002	-2.9612127E-001	-9.7998613E-001	0
7.748471804256988E+002	-2.9713288E-001	-9.8000526E-001	0
7.749561804229452E+002	-2.9818270E-001	-9.8000526E-001	0
7.751289804185799E+002	-2.9921341E-001	-9.7998613E-001	0
7.752845804146491E+002	-3.0022502E-001	-9.7999251E-001	0
7.754141804113751E+002	-3.0123663E-001	-9.7996706E-001	0
7.754581804102636E+002	-3.0224827E-001	-9.7989696E-001	0
7.754847804095916E+002	-3.0329806E-001	-9.8003066E-001	0
7.755685804074747E+002	-3.0442420E-001	-9.7993523E-001	0
7.757543804027810E+002	-3.0545491E-001	-9.8000526E-001	0
7.761527803927165E+002	-3.0648562E-001	-9.8001802E-001	0
7.762835803894122E+002	-3.0547401E-001	-9.8000526E-001	0
7.763091803887655E+002	-3.0658108E-001	-9.8004979E-001	0
7.763465803878207E+002	-3.0556944E-001	-9.7999889E-001	0
7.763785803870123E+002	-3.0661926E-001	-9.8000526E-001	0
7.768337803755130E+002	-3.0766904E-001	-9.7999251E-001	0
7.768979803738912E+002	-3.0661926E-001	-9.8001802E-001	0
7.769301803730777E+002	-3.0770722E-001	-9.8001158E-001	0
7.769359803729312E+002	-3.0646655E-001	-9.7996074E-001	0
7.769729803719965E+002	-3.0747816E-001	-9.7997981E-001	0
7.770697803695512E+002	-3.0850887E-001	-9.7996074E-001	0
7.770839803691924E+002	-3.0957776E-001	-9.8004979E-001	0
7.771643803671614E+002	-3.0854705E-001	-9.8001158E-001	0
7.772595803647564E+002	-3.0743998E-001	-9.8001802E-001	0
7.772695803645038E+002	-3.0631384E-001	-9.8004979E-001	0
7.772939803638874E+002	-3.0524495E-001	-9.7997981E-001	0
7.773011803637055E+002	-3.0421424E-001	-9.7999251E-001	0
7.773379803627759E+002	-3.0316445E-001	-9.7999889E-001	0
7.773745803618513E+002	-3.0213374E-001	-9.8000526E-001	0
7.774609803596686E+002	-3.0314538E-001	-9.7996706E-001	0
7.774677803594968E+002	-3.0209556E-001	-9.7997338E-001	0
7.775055803585419E+002	-3.0098850E-001	-9.7996706E-001	0
7.775533803573344E+002	-3.0207649E-001	-9.7993523E-001	0
7.775919803563593E+002	-3.0106485E-001	-9.7996706E-001	0
7.777433803525346E+002	-3.0005324E-001	-9.8001158E-001	0
7.777667803519435E+002	-3.0106485E-001	-9.8004341E-001	0
7.778465803499275E+002	-3.0221009E-001	-9.7991616E-001	0
7.778503803498315E+002	-3.0119848E-001	-9.7996706E-001	0
7.778595803495991E+002	-3.0221009E-001	-9.8002434E-001	0
7.779657803469163E+002	-3.0327898E-001	-9.7997981E-001	0
7.779909803462797E+002	-3.0442420E-001	-9.7998613E-001	0
7.779971803461231E+002	-3.0339351E-001	-9.8001802E-001	0
7.780497803447943E+002	-3.0234370E-001	-9.7996706E-001	0
7.780991803435463E+002	-3.0345076E-001	-9.8004341E-001	0
7.782059803408483E+002	-3.0243915E-001	-9.7997338E-001	0
7.782401803399844E+002	-3.0127481E-001	-9.7994798E-001	0
7.782803803389688E+002	-3.0242005E-001	-9.8006248E-001	0
7.783453803373268E+002	-3.0343166E-001	-9.7996706E-001	0
7.783687803367357E+002	-3.0238187E-001	-9.8002434E-001	0
7.784067803357757E+002	-3.0129391E-001	-9.8002434E-001	0
7.784907803336537E+002	-3.0245823E-001	-9.7995430E-001	0
7.785225803328503E+002	-3.0129391E-001	-9.7996706E-001	0
7.785579803319561E+002	-3.0230552E-001	-9.7992891E-001	0
7.785687803316832E+002	-3.0119848E-001	-9.8001158E-001	0
7.785867803312285E+002	-3.0224827E-001	-9.7996706E-001	0
7.786189803304151E+002	-3.0116031E-001	-9.7999889E-001	0
7.786345803300210E+002	-3.0217192E-001	-9.7998613E-001	0
7.786467803297128E+002	-3.0106485E-001	-9.7993523E-001	0
7.786653803292429E+002	-3.0207649E-001	-9.7997338E-001	0
7.786733803290408E+002	-3.0102667E-001	-9.8003066E-001	0
7.786835803287831E+002	-3.0215284E-001	-9.8001158E-001	0
7.787181803279091E+002	-3.0098850E-001	-9.8001158E-001	0
7.787271803276817E+002	-3.0203831E-001	-9.8000526E-001	0
7.788545803244633E+002	-3.0102667E-001	-9.7992891E-001	0
7.788871803236398E+002	-3.0203831E-001	-9.7999251E-001	0
7.789259803226596E+002	-3.0081671E-001	-9.7992253E-001	0
7.789439803222049E+002	-3.0192378E-001	-9.8006248E-001	0
7.790273803200980E+002	-3.0297357E-001	-9.7993523E-001	0
7.790787803187995E+002	-3.0406156E-001	-9.8004341E-001	0
7.791233803176729E+002	-3.0295449E-001	-9.8002434E-001	0
7.791295803175162E+002	-3.0398521E-001	-9.8001158E-001	0
7.791847803161218E+002	-3.0291632E-001	-9.8004979E-001	0
7.792889803134894E+002	-3.0400428E-001	-9.8008794E-001	0
7.793143803128478E+002	-3.0299267E-001	-9.7998613E-001	0
7.793481803119939E+002	-3.0411881E-001	-9.7999251E-001	0
7.793627803116251E+002	-3.0299267E-001	-9.7994167E-001	0
7.793799803111906E+002	-3.0184743E-001	-9.7995430E-001	0
7.793859803110390E+002	-3.0070221E-001	-9.8000526E-001	0
7.794053803105489E+002	-3.0173290E-001	-9.7998613E-001	0
7.794371803097456E+002	-3.0058768E-001	-9.8000526E-001	0
7.795225803075882E+002	-2.9934701E-001	-9.8002434E-001	0
7.795645803065272E+002	-3.0035862E-001	-9.7997338E-001	0
7.795763803062291E+002	-2.9930884E-001	-9.7994167E-001	0
7.796177803051833E+002	-2.9827812E-001	-9.7997338E-001	0
7.796489803043951E+002	-2.9726651E-001	-9.8007524E-001	0
7.796701803038595E+002	-2.9623580E-001	-9.8001158E-001	0
7.797555803017021E+002	-2.9724741E-001	-9.7997338E-001	0
7.797977803006361E+002	-2.9831630E-001	-9.8000526E-001	0
7.798673802988778E+002	-2.9722834E-001	-9.7994798E-001	0
7.799265802973823E+002	-2.9610217E-001	-9.8000526E-001	0
7.799815802959929E+002	-2.9493785E-001	-9.8000526E-001	0
7.801241802923905E+002	-2.9383078E-001	-9.7999251E-001	0
7.802485802892479E+002	-2.9262829E-001	-9.7994798E-001	0
7.802837802883587E+002	-2.9157850E-001	-9.7999251E-001	0
7.803361802870349E+002	-2.9056689E-001	-9.7993523E-001	0
7.803417802868935E+002	-2.8953618E-001	-9.8000526E-001	0
7.804317802846199E+002	-2.8842911E-001	-9.7990340E-001	0
7.804755802835134E+002	-2.8739840E-001	-9.7997338E-001	0
7.805659802812297E+002	-2.8638679E-001	-9.7996074E-001	0
7.806087802801485E+002	-2.8527972E-001	-9.7999889E-001	0
7.807081802776374E+002	-2.8417265E-001	-9.7997338E-001	0
7.807927802755003E+002	-2.8308469E-001	-9.7992253E-001	0
7.809229802722111E+002	-2.8195855E-001	-9.8001802E-001	0
7.810855802681035E+002	-2.8094691E-001	-9.7999251E-001	0
7.813193802621972E+002	-2.8205398E-001	-9.7999889E-001	0
7.818825802479696E+002	-2.8308469E-001	-9.7989696E-001	0
7.819469802463427E+002	-2.8409630E-001	-9.8002434E-001	0
7.821397802414722E+002	-2.8308469E-001	-9.8001158E-001	0
7.822503802386782E+002	-2.8413448E-001	-9.7996074E-001	0
7.823329802365915E+002	-2.8306559E-001	-9.7999251E-001	0
7.823917802351061E+002	-2.8422990E-001	-9.7999889E-001	0
7.824525802335702E+002	-2.8321829E-001	-9.8000526E-001	0
7.824543802335247E+002	-2.8426808E-001	-9.7999889E-001	0
7.826221802292857E+002	-2.8314194E-001	-9.7995430E-001	0
7.828287802240666E+002	-2.8213033E-001	-9.7992253E-001	0
7.830231802191556E+002	-2.8108051E-001	-9.7996706E-001	0
7.832197802141891E+002	-2.8006890E-001	-9.7997338E-001	0
7.833907802098693E+002	-2.7905726E-001	-9.8000526E-001	0
7.835621802055393E+002	-2.7800748E-001	-9.7990972E-001	0
7.847659801751288E+002	-2.7901912E-001	-9.7997338E-001	0
7.862727801370638E+002	-2.7798840E-001	-9.7996706E-001	0
7.863547801349923E+002	-2.7697676E-001	-9.8001802E-001	0
7.873405801100889E+002	-2.7798840E-001	-9.8001158E-001	0
7.874899801063148E+002	-2.7901912E-001	-9.8003709E-001	0
7.877009801009845E+002	-2.8003073E-001	-9.8003709E-001	0
7.879613800944062E+002	-2.8106144E-001	-9.8001802E-001	0
7.880979800909554E+002	-2.8207305E-001	-9.8002434E-001	0
7.886465800770966E+002	-2.8310376E-001	-9.7998613E-001	0
7.889495800694422E+002	-2.8415358E-001	-9.8001158E-001	0
7.891599800641270E+002	-2.8518429E-001	-9.8002434E-001	0
7.895021800554823E+002	-2.8621498E-001	-9.8004341E-001	0
7.897655800488283E+002	-2.8728387E-001	-9.7999889E-001	0
7.901471800391882E+002	-2.8829551E-001	-9.8000526E-001	0
7.908679800209793E+002	-2.8718844E-001	-9.7999889E-001	0
7.914457800063828E+002	-2.8821915E-001	-9.8006886E-001	0
7.915775800030533E+002	-2.8718844E-001	-9.8002434E-001	0
7.916129800021590E+002	-2.8613865E-001	-9.7999889E-001	0
7.917125799996429E+002	-2.8716937E-001	-9.7997338E-001	0
7.918233799968439E+002	-2.8818098E-001	-9.7999889E-001	0
7.919155799945147E+002	-2.8716937E-001	-9.7996706E-001	0
7.920799799903616E+002	-2.8615773E-001	-9.7996706E-001	0
7.922885799850919E+002	-2.8506976E-001	-9.8001802E-001	0
7.924163799818634E+002	-2.8610048E-001	-9.7997981E-001	0
7.925555799783469E+002	-2.8508884E-001	-9.7999889E-001	0
7.925861799775739E+002	-2.8613865E-001	-9.8003709E-001	0
7.930359799662110E+002	-2.8506976E-001	-9.7997338E-001	0
7.933861799573642E+002	-2.8403905E-001	-9.8000526E-001	0
7.937071799492551E+002	-2.8505066E-001	-9.8000526E-001	0
7.941405799383065E+002	-2.8610048E-001	-9.8000526E-001	0
7.944151799313695E+002	-2.8711209E-001	-9.8001802E-001	0
7.946843799245689E+002	-2.8814280E-001	-9.7998613E-001	0
7.949373799181776E+002	-2.8915441E-001	-9.8003709E-001	0
7.954037799063954E+002	-2.9029965E-001	-9.7997338E-001	0
7.955895799017017E+002	-2.9131129E-001	-9.8000526E-001	0
7.957641798972909E+002	-2.9236108E-001	-9.7992253E-001	0
7.959907798915665E+002	-2.9341087E-001	-9.8001802E-001	0
7.962203798857663E+002	-2.9446068E-001	-9.8004979E-001	0
7.963099798835028E+002	-2.9547229E-001	-9.8005617E-001	0
7.964071798810473E+002	-2.9648393E-001	-9.7999251E-001	0
7.964847798790870E+002	-2.9757190E-001	-9.7999889E-001	0
7.967381798726856E+002	-2.9864079E-001	-9.8002434E-001	0
7.968433798700280E+002	-2.9762915E-001	-9.8003066E-001	0
7.968915798688104E+002	-2.9864079E-001	-9.7998613E-001	0
7.970293798653292E+002	-2.9762915E-001	-9.8006886E-001	0
7.970361798651575E+002	-2.9865986E-001	-9.7994798E-001	0
7.970607798645360E+002	-2.9764825E-001	-9.8004979E-001	0
7.971029798634700E+002	-2.9652211E-001	-9.7997981E-001	0
7.972665798593371E+002	-2.9761007E-001	-9.7996074E-001	0
7.973325798576698E+002	-2.9659843E-001	-9.8001802E-001	0
7.975567798520060E+002	-2.9764825E-001	-9.7998613E-001	0
7.978419798448012E+002	-2.9865986E-001	-9.7994798E-001	0
7.979417798422801E+002	-2.9976693E-001	-9.7996074E-001	0
7.980713798390061E+002	-3.0083582E-001	-9.7997338E-001	0
7.981323798374651E+002	-2.9982418E-001	-9.8003709E-001	0
7.981787798362930E+002	-3.0085489E-001	-9.7997338E-001	0
7.983483798320085E+002	-3.0188560E-001	-9.8006248E-001	0
7.984551798293105E+002	-3.0295449E-001	-9.8000526E-001	0
7.985185798277089E+002	-3.0415699E-001	-9.7994798E-001	0
7.985865798259911E+002	-3.0520678E-001	-9.8002434E-001	0
7.986011798256222E+002	-3.0400428E-001	-9.8001802E-001	0
7.986409798246168E+002	-3.0501592E-001	-9.7999889E-001	0
7.988451798194583E+002	-3.0606571E-001	-9.7996074E-001	0
7.990457798143907E+002	-3.0707735E-001	-9.7998613E-001	0
7.991115798127285E+002	-3.0810803E-001	-9.8000526E-001	0
7.991529798116826E+002	-3.0919603E-001	-9.7996074E-001	0
7.992511798092019E+002	-3.1020764E-001	-9.8004979E-001	0
7.994065798052761E+002	-3.0919603E-001	-9.8002434E-001	0
7.995025798028510E+002	-3.1020764E-001	-9.7996074E-001	0
7.996807797983492E+002	-3.1121927E-001	-9.7999889E-001	0
7.997495797966112E+002	-3.1224999E-001	-9.7999251E-001	0
7.998659797936707E+002	-3.1339520E-001	-9.8003709E-001	0
7.999165797923924E+002	-3.1440684E-001	-9.7997981E-001	0
8.000685797885526E+002	-3.1492218E-001	-9.7994798E-001	0