time/s	Ewe/V	I/mA	error	
6.005299848293362E+001	2.7365346E+000	-2.5006020E-002	0
6.017319847989711E+001	9.0419333E-003	-1.2330876E+001	0
6.017359847988700E+001	9.1182841E-003	-1.2271077E+001	0
6.017399847987690E+001	9.0991966E-003	-1.2214459E+001	0
6.017439847986680E+001	9.0037575E-003	-1.2155297E+001	0
6.017479847985669E+001	8.9655817E-003	-1.2092955E+001	0
6.017539847984153E+001	8.9274067E-003	-1.2015344E+001	0
6.017579847983143E+001	8.9464942E-003	-1.1965088E+001	0
6.017619847982132E+001	9.0610208E-003	-1.1908470E+001	0
6.017659847981122E+001	8.9464942E-003	-1.1846764E+001	0
6.017719847979606E+001	8.9464942E-003	-1.1770425E+001	0
6.017759847978596E+001	8.9655817E-003	-1.1718260E+001	0
6.017799847977585E+001	9.0610208E-003	-1.1662915E+001	0
6.017839847976575E+001	9.0610208E-003	-1.1609478E+001	0
6.017879847975564E+001	9.0419333E-003	-1.1550952E+001	0
6.017939847974048E+001	9.0228450E-003	-1.1476521E+001	0
6.017999847972533E+001	9.0801083E-003	-1.1397002E+001	0
6.018059847971017E+001	8.9655817E-003	-1.1316847E+001	0
6.018099847970007E+001	9.0419333E-003	-1.1265955E+001	0
6.018159847968491E+001	8.9846700E-003	-1.1192797E+001	0
6.018199847967480E+001	9.0991966E-003	-1.1138724E+001	0
6.018239847966470E+001	8.9655817E-003	-1.1084014E+001	0
6.018299847964954E+001	9.0037575E-003	-1.1010858E+001	0
6.018359847963438E+001	8.9655817E-003	-1.0944061E+001	0
6.018399847962428E+001	9.0228450E-003	-1.0892533E+001	0
6.018439847961417E+001	9.0610208E-003	-1.0840368E+001	0
6.018479847960407E+001	9.0610208E-003	-1.0789476E+001	0
6.018539847958891E+001	9.0037575E-003	-1.0718863E+001	0
6.018599847957375E+001	9.0610208E-003	-1.0653339E+001	0
6.018639847956365E+001	9.0610208E-003	-1.0603083E+001	0
6.018679847955354E+001	8.9846700E-003	-1.0552190E+001	0
6.018739847953839E+001	9.0037575E-003	-1.0485394E+001	0
6.018799847952323E+001	9.0610208E-003	-1.0416054E+001	0
6.018839847951313E+001	8.9655817E-003	-1.0365161E+001	0
6.018899847949797E+001	9.0037575E-003	-1.0300273E+001	0
6.018959847948281E+001	9.0037575E-003	-1.0232204E+001	0
6.018999847947271E+001	8.9464942E-003	-1.0180676E+001	0
6.019059847945755E+001	8.9274067E-003	-1.0123423E+001	0
6.019119847944239E+001	9.0610208E-003	-1.0060443E+001	0
6.019179847942723E+001	9.0228450E-003	-9.9872866E+000	0
6.019239847941208E+001	9.0037575E-003	-9.9192171E+000	0
6.019299847939692E+001	9.0419333E-003	-9.8581467E+000	0
6.019359847938176E+001	8.9846700E-003	-9.7996206E+000	0
6.019419847936661E+001	9.0228450E-003	-9.7328243E+000	0
6.019479847935145E+001	9.0610208E-003	-9.6736622E+000	0
6.019539847933629E+001	9.0991966E-003	-9.6138639E+000	0
6.019599847932113E+001	8.9655817E-003	-9.5419779E+000	0
6.019679847930092E+001	9.1946358E-003	-9.4688206E+000	0
6.019739847928577E+001	9.0419333E-003	-9.4077492E+000	0
6.019799847927061E+001	9.0419333E-003	-9.3473158E+000	0
6.019859847925545E+001	8.9083184E-003	-9.2938786E+000	0
6.019919847924029E+001	9.0228450E-003	-9.2277193E+000	0
6.019999847922008E+001	9.0801083E-003	-9.1551971E+000	0
6.020059847920493E+001	9.0801083E-003	-9.0998516E+000	0
6.020119847918977E+001	9.1564599E-003	-9.0425978E+000	0
6.020179847917461E+001	9.0610208E-003	-8.9853439E+000	0
6.020259847915440E+001	9.0228450E-003	-8.9198198E+000	0
6.020319847913925E+001	9.0037575E-003	-8.8612938E+000	0
6.020379847912409E+001	9.0037575E-003	-8.7983150E+000	0
6.020459847910388E+001	9.0419333E-003	-8.7353363E+000	0
6.020519847908872E+001	8.9846700E-003	-8.6780825E+000	0
6.020599847906851E+001	8.9846700E-003	-8.6119213E+000	0
6.020659847905335E+001	9.0037575E-003	-8.5572128E+000	0
6.020739847903315E+001	9.0610208E-003	-8.4916887E+000	0
6.020799847901799E+001	9.0991966E-003	-8.4414330E+000	0
6.020859847900283E+001	9.0419333E-003	-8.3899040E+000	0
6.020939847898262E+001	8.9464942E-003	-8.3237438E+000	0
6.021019847896241E+001	9.0610208E-003	-8.2645817E+000	0
6.021079847894725E+001	9.0801083E-003	-8.2066927E+000	0
6.021159847892704E+001	9.0801083E-003	-8.1513472E+000	0
6.021219847891189E+001	9.0228450E-003	-8.0998182E+000	0
6.021299847889168E+001	9.0228450E-003	-8.0419283E+000	0
6.021359847887652E+001	8.9846700E-003	-7.9872189E+000	0
6.021419847886136E+001	8.9846700E-003	-7.9369631E+000	0
6.021499847884115E+001	9.0610208E-003	-7.8784370E+000	0
6.021579847882094E+001	8.9846700E-003	-7.8192749E+000	0
6.021679847879568E+001	9.0419333E-003	-7.7442083E+000	0
6.021759847877547E+001	9.0419333E-003	-7.6926804E+000	0
6.021819847876031E+001	9.0228450E-003	-7.6405149E+000	0
6.021919847873505E+001	9.0228450E-003	-7.5788083E+000	0
6.021999847871484E+001	9.1182841E-003	-7.5221906E+000	0
6.022079847869463E+001	8.9655817E-003	-7.4630284E+000	0
6.022159847867442E+001	8.9083184E-003	-7.4115000E+000	0
6.022239847865421E+001	9.0037575E-003	-7.3548827E+000	0
6.022319847863400E+001	9.1182841E-003	-7.3033543E+000	0
6.022399847861379E+001	9.0801083E-003	-7.2467360E+000	0
6.022479847859358E+001	9.0037575E-003	-7.1920266E+000	0
6.022559847857337E+001	9.0610208E-003	-7.1417708E+000	0
6.022659847854811E+001	9.0991966E-003	-7.0832448E+000	0
6.022759847852285E+001	9.0610208E-003	-7.0164485E+000	0
6.022839847850264E+001	9.0801083E-003	-6.9661922E+000	0
6.022939847847738E+001	9.0419333E-003	-6.9038496E+000	0
6.023019847845717E+001	9.0037575E-003	-6.8516850E+000	0
6.023119847843191E+001	9.0610208E-003	-6.7899785E+000	0
6.023219847840664E+001	9.0610208E-003	-6.7346325E+000	0
6.023319847838138E+001	9.0228450E-003	-6.6773787E+000	0
6.023399847836117E+001	9.0228450E-003	-6.6245780E+000	0
6.023519847833086E+001	8.9655817E-003	-6.5539651E+000	0
6.023619847830560E+001	8.9655817E-003	-6.5018005E+000	0
6.023739847827528E+001	8.9655817E-003	-6.4337320E+000	0
6.023839847825002E+001	9.0037575E-003	-6.3815675E+000	0
6.023939847822476E+001	9.0228450E-003	-6.3287663E+000	0
6.024039847819950E+001	8.9846700E-003	-6.2753301E+000	0
6.024139847817423E+001	9.0610208E-003	-6.2238016E+000	0
6.024239847814897E+001	9.0610208E-003	-6.1684561E+000	0
6.024359847811866E+001	9.0228450E-003	-6.1150193E+000	0
6.024439847809845E+001	9.1182841E-003	-6.0628548E+000	0
6.024559847806813E+001	9.0801083E-003	-6.0087814E+000	0
6.024679847803782E+001	9.0228450E-003	-5.9496193E+000	0
6.024799847800750E+001	9.0610208E-003	-5.8898211E+000	0
6.024919847797719E+001	8.9846700E-003	-5.8376565E+000	0
6.025019847795193E+001	9.0610208E-003	-5.7867641E+000	0
6.025139847792161E+001	9.0228450E-003	-5.7314186E+000	0
6.025259847789130E+001	9.0801083E-003	-5.6798902E+000	0
6.025379847786098E+001	9.0991966E-003	-5.6277256E+000	0
6.025499847783067E+001	9.0419333E-003	-5.5742888E+000	0
6.025639847779530E+001	9.0228450E-003	-5.5151267E+000	0
6.025779847775993E+001	9.0228450E-003	-5.4546919E+000	0
6.025919847772457E+001	9.0037575E-003	-5.3974380E+000	0
6.026039847769425E+001	9.0228450E-003	-5.3452740E+000	0
6.026179847765889E+001	8.9846700E-003	-5.2931085E+000	0
6.026319847762352E+001	9.0037575E-003	-5.2364912E+000	0
6.026479847758310E+001	9.0037575E-003	-5.1703310E+000	0
6.026639847754268E+001	9.0037575E-003	-5.1124415E+000	0
6.026799847750226E+001	9.0037575E-003	-5.0583682E+000	0
6.026939847746689E+001	9.0991966E-003	-5.0030227E+000	0
6.027099847742647E+001	9.0419333E-003	-4.9521303E+000	0
6.027239847739111E+001	9.0991966E-003	-4.8974214E+000	0
6.027399847735069E+001	9.0037575E-003	-4.8439846E+000	0
6.027579847730522E+001	9.0419333E-003	-4.7911835E+000	0
6.027719847726985E+001	9.0419333E-003	-4.7332935E+000	0
6.027899847722438E+001	9.0037575E-003	-4.6830373E+000	0
6.028059847718396E+001	8.9655817E-003	-4.6251473E+000	0
6.028259847713343E+001	9.0037575E-003	-4.5710745E+000	0
6.028439847708796E+001	9.0991966E-003	-4.5157290E+000	0
6.028619847704249E+001	9.1755474E-003	-4.4648366E+000	0
6.028779847700207E+001	8.9655817E-003	-4.4139442E+000	0
6.028979847695155E+001	8.9655817E-003	-4.3617797E+000	0
6.029179847690102E+001	9.0801083E-003	-4.3077068E+000	0
6.029379847685050E+001	9.0037575E-003	-4.2549057E+000	0
6.029579847679997E+001	9.0037575E-003	-4.2040133E+000	0
6.029819847673934E+001	9.1755474E-003	-4.1473961E+000	0
6.030039847668377E+001	9.0037575E-003	-4.0945954E+000	0
6.030259847662819E+001	9.0419333E-003	-4.0392499E+000	0
6.030459847657767E+001	8.9655817E-003	-3.9864488E+000	0
6.030699847651704E+001	9.0228450E-003	-3.9298315E+000	0
6.030979847644630E+001	8.9846700E-003	-3.8757582E+000	0
6.031259847637557E+001	9.1182841E-003	-3.8210495E+000	0
6.031499847631494E+001	9.0228450E-003	-3.7669764E+000	0
6.031799847623915E+001	9.0991966E-003	-3.7001803E+000	0
6.032099847616337E+001	8.9655817E-003	-3.6492877E+000	0
6.032359847609769E+001	9.1182841E-003	-3.5983958E+000	0
6.032659847602190E+001	8.9274067E-003	-3.5443225E+000	0
6.032959847594611E+001	9.0610208E-003	-3.4921579E+000	0
6.033259847587033E+001	8.9846700E-003	-3.4412656E+000	0
6.033559847579454E+001	9.0037575E-003	-3.3910093E+000	0
6.033919847570360E+001	9.0610208E-003	-3.3375726E+000	0
6.034259847561771E+001	8.9655817E-003	-3.2860444E+000	0
6.034599847553181E+001	9.0801083E-003	-3.2300627E+000	0
6.034959847544087E+001	9.0610208E-003	-3.1798065E+000	0
6.035379847533477E+001	9.0228450E-003	-3.1244612E+000	0
6.035799847522867E+001	9.0228450E-003	-3.0640268E+000	0
6.036219847512257E+001	9.1373716E-003	-3.0137706E+000	0
6.036659847501141E+001	8.9464942E-003	-2.9609697E+000	0
6.037079847490531E+001	9.0991966E-003	-2.9107137E+000	0
6.040339847408177E+001	9.0228450E-003	-2.6164985E+000	0
6.040919847393525E+001	8.9464942E-003	-2.5648487E+000	0
6.041519847378368E+001	9.0228450E-003	-2.5136435E+000	0
6.042139847362705E+001	9.0419333E-003	-2.4631388E+000	0
6.042799847346032E+001	9.1182841E-003	-2.4129519E+000	0
6.043479847328854E+001	8.9846700E-003	-2.3620014E+000	0
6.044179847311170E+001	9.0037575E-003	-2.3118145E+000	0
6.044919847292476E+001	9.0037575E-003	-2.2609911E+000	0
6.045699847272772E+001	8.9846700E-003	-2.2108679E+000	0
6.046499847252562E+001	9.0228450E-003	-2.1604900E+000	0
6.047339847231342E+001	9.1182841E-003	-2.1103666E+000	0
6.048239847208606E+001	9.0037575E-003	-2.0598614E+000	0
6.049159847185365E+001	9.0228450E-003	-2.0096109E+000	0
6.050139847160608E+001	9.0419333E-003	-1.9587877E+000	0
6.051199847133830E+001	8.9846700E-003	-1.9075195E+000	0
6.052279847106547E+001	8.9655817E-003	-1.8573325E+000	0
6.053439847077243E+001	9.0419333E-003	-1.8070182E+000	0
6.054619847047434E+001	9.1182841E-003	-1.7567676E+000	0
6.055919847014593E+001	8.9846700E-003	-1.7059443E+000	0
6.057299846979731E+001	9.0610208E-003	-1.6556938E+000	0
6.058759846942849E+001	8.9464942E-003	-1.6055068E+000	0
6.060319846903440E+001	9.0037575E-003	-1.5539204E+000	0
6.061979846861504E+001	9.1182841E-003	-1.5036697E+000	0
6.063779846816033E+001	9.0228450E-003	-1.4529738E+000	0
6.065679846768035E+001	9.0228450E-003	-1.4029140E+000	0
6.067739846715995E+001	9.0228450E-003	-1.3520274E+000	0
6.069999846658902E+001	9.0801083E-003	-1.3004409E+000	0
6.072419846597768E+001	9.0228450E-003	-1.2502540E+000	0
6.075079846530571E+001	8.9846700E-003	-1.1998762E+000	0
6.077919846458826E+001	9.0610208E-003	-1.1496892E+000	0
6.081059846379503E+001	8.9274067E-003	-1.0994385E+000	0
6.084499846292601E+001	9.1564599E-003	-1.0492514E+000	0
6.088319846196100E+001	9.0037575E-003	-9.9919164E-001	0
6.092539846089494E+001	9.0801083E-003	-9.4760525E-001	0
6.097399845966720E+001	9.0228450E-003	-8.9703655E-001	0
6.102739845831820E+001	9.0610208E-003	-8.4634072E-001	0
6.108699845681258E+001	9.0228450E-003	-7.9558116E-001	0
6.115639845505939E+001	9.0228450E-003	-7.4520332E-001	0
6.123339845311421E+001	8.9846700E-003	-6.9514358E-001	0
6.132499845080019E+001	9.0991966E-003	-6.4425683E-001	0
6.143099844812241E+001	9.0610208E-003	-5.9387898E-001	0
6.155979844486865E+001	9.1182841E-003	-5.4331040E-001	0
6.171439844096312E+001	9.1182841E-003	-4.9293247E-001	0
6.190319843619363E+001	9.0228450E-003	-4.4280908E-001	0
6.216359842961538E+001	8.9464942E-003	-3.9273232E-001	0
6.247479842175380E+001	8.9464942E-003	-3.4271619E-001	0
6.289259841119929E+001	9.0037575E-003	-2.9258555E-001	0
6.347899839638558E+001	9.0801083E-003	-2.4242312E-001	0
6.437299837380124E+001	9.0228450E-003	-1.9241972E-001	0
6.505279835662805E+001	9.0228450E-003	-1.6714127E-001	0
6.505339835659834E+001	9.0610208E-003	-1.6645412E-001	0
6.726199830080441E+001	9.1755474E-003	-1.1634257E-001	0
7.283459816002869E+001	9.0801083E-003	-6.6269204E-002	0
8.183899793255841E+001	9.0801083E-003	-3.9131340E-002	0
8.183919793255336E+001	9.0228450E-003	-3.9194953E-002	0